# Created by Octave 4.2.2, Mon Apr 01 16:12:26 2019 -03 <mauricio@mauricio-PC>
# name: ecg
# type: matrix
# rows: 1
# columns: 43200
 -0.145 -0.1653304600733819 -0.145 -0.1334856635591455 -0.145 -0.153204525909592 -0.145 -0.1384635345935327 -0.145 -0.1507917576188227 -0.145 -0.1393405897605509 -0.145 -0.1518653101235873 -0.145 -0.1288748210562926 -0.12 -0.1247179299552642 -0.135 -0.1422316939167395 -0.145 -0.1465758133116956 -0.15 -0.1556782302063218 -0.16 -0.159199686584413 -0.155 -0.1541459444556252 -0.16 -0.1688189757758725 -0.175 -0.1777872767972611 -0.18 -0.1832350772780112 -0.185 -0.1810150795298699 -0.17 -0.1581013841138316 -0.155 -0.1635457726661711 -0.175 -0.1799249068226708 -0.18 -0.1834628669088422 -0.19 -0.1902455284662582 -0.18 -0.1662515683381102 -0.155 -0.1444318086318043 -0.135 -0.1367379147923045 -0.155 -0.1779546547705995 -0.19 -0.1940791997884288 -0.205 -0.2239647720231821 -0.235 -0.2308578808690145 -0.225 -0.2315786443486231 -0.245 -0.2514894377214358 -0.25 -0.2513031143690819 -0.26 -0.2700194008190908 -0.275 -0.2755149147781018 -0.275 -0.2751326470042827 -0.275 -0.2720428131132705 -0.265 -0.257279390781107 -0.255 -0.2591621063898081 -0.265 -0.2693504248428194 -0.275 -0.2832041333978402 -0.29 -0.2914924686150236 -0.29 -0.2893346870916685 -0.29 -0.2905003729774643 -0.29 -0.2878860297698266 -0.285 -0.2863528117768185 -0.295 -0.3047310655551762 -0.305 -0.29540315515784 -0.285 -0.2791078359772001 -0.2750000000000001 -0.2725045954670128 -0.2750000000000001 -0.279925072961603 -0.2800000000000001 -0.2781393497471865 -0.285 -0.2992688121855736 -0.3050000000000001 -0.296964808911821 -0.2900000000000001 -0.294885353991962 -0.3000000000000001 -0.2922747757122892 -0.2800000000000001 -0.279713753200245 -0.2900000000000001 -0.2975911111207697 -0.3000000000000001 -0.3056960252761928 -0.3150000000000001 -0.3199696141538144 -0.3200000000000001 -0.3239519084374997 -0.3350000000000001 -0.3479636576294368 -0.36 -0.3733000696368139 -0.3850000000000001 -0.3883175881275227 -0.3850000000000001 -0.3878346351961633 -0.405 -0.431037279060741 -0.455 -0.4726801196580241 -0.485 -0.4909334680697927 -0.485 -0.4627334822580702 -0.425 -0.3786366163729223 -0.3300000000000001 -0.2790988135449858 -0.22 -0.1495905331262984 -0.07000000000000006 0.01785962550234203 0.12 0.2411394600137442 0.3749999999999999 0.5057652960629253 0.62 0.7117613503051433 0.78 0.8235977080812483 0.84 0.823062279380417 0.765 0.6620136256946767 0.52 0.3512527603125877 0.17 -0.008268724433451433 -0.1650000000000001 -0.2851717791075528 -0.3650000000000001 -0.4120107341187759 -0.4350000000000001 -0.4385825795975016 -0.425 -0.3994713194287642 -0.37 -0.3451667434395802 -0.3299999999999999 -0.324581751947069 -0.3249999999999999 -0.3286212244877019 -0.3349999999999999 -0.342429785408659 -0.3449999999999999 -0.3393097719921723 -0.33 -0.3251917396373558 -0.325 -0.3225473859464097 -0.3149999999999999 -0.3089551429591634 -0.31 -0.3154011269714154 -0.32 -0.3255917661419382 -0.335 -0.3428357685497203 -0.34 -0.3293891041988441 -0.3250000000000001 -0.3338413707939799 -0.3450000000000001 -0.3449303638326409 -0.3350000000000002 -0.3281592855582243 -0.3300000000000001 -0.3345023355985427 -0.3350000000000001 -0.3326096078636928 -0.3300000000000001 -0.3273165371696672 -0.3250000000000001 -0.3261688928139758 -0.3300000000000001 -0.3315429772026022 -0.3300000000000001 -0.3332376797376475 -0.345 -0.3562139058300082 -0.355 -0.3439474709048346 -0.3350000000000001 -0.3315244601804438 -0.3250000000000001 -0.3127514168077446 -0.305 -0.3099000750281576 -0.3200000000000001 -0.3231630603949573 -0.3200000000000001 -0.3210591483858584 -0.3300000000000001 -0.3386662247392512 -0.3400000000000001 -0.3365182112294906 -0.3350000000000001 -0.3370515764399323 -0.3400000000000001 -0.3421811304851534 -0.345 -0.349746959094726 -0.355 -0.3575875666676436 -0.355 -0.3481541457770405 -0.3400000000000001 -0.3336317532960589 -0.3300000000000001 -0.329234656887742 -0.3300000000000001 -0.3304590792317019 -0.3300000000000001 -0.3322048466661147 -0.3400000000000001 -0.3492849594090501 -0.35 -0.3388908285232576 -0.3250000000000001 -0.3202506420130505 -0.3250000000000001 -0.3302049761612831 -0.3300000000000001 -0.32829003789205 -0.3300000000000001 -0.3338174637511497 -0.3350000000000001 -0.3339881415042621 -0.3350000000000001 -0.3388451167572026 -0.3400000000000001 -0.3353772831950347 -0.3300000000000001 -0.3317454643171548 -0.3400000000000001 -0.3473599186913339 -0.35 -0.3519106537445936 -0.355 -0.3551293527422713 -0.35 -0.3455140315896848 -0.345 -0.3417986589148586 -0.3300000000000001 -0.3185862799967724 -0.3200000000000001 -0.3306380434474252 -0.3350000000000001 -0.3305250597781524 -0.3300000000000001 -0.3389521964211471 -0.345 -0.3390807094524921 -0.3300000000000001 -0.329844478267551 -0.3350000000000001 -0.3362006263915804 -0.3350000000000001 -0.3388384292971319 -0.345 -0.3462462887017255 -0.345 -0.3492023613340258 -0.355 -0.3514924326900789 -0.3400000000000001 -0.3348238866577448 -0.3400000000000001 -0.3429439701745983 -0.3350000000000001 -0.3264797963464866 -0.3300000000000001 -0.3420976950721197 -0.35 -0.3507627150064412 -0.35 -0.3493550520691902 -0.345 -0.3383398132430639 -0.3350000000000001 -0.3356164452015233 -0.3350000000000001 -0.3329764585340508 -0.3350000000000001 -0.3426701718221278 -0.35 -0.3533193238664842 -0.355 -0.3567257353595812 -0.355 -0.3492800158097014 -0.345 -0.3453809333128352 -0.345 -0.3396860242271739 -0.3350000000000001 -0.3391939265530126 -0.35 -0.3582279491442742 -0.36 -0.3596223096213442 -0.36 -0.3601268721334729 -0.36 -0.3621263599730861 -0.365 -0.3641147903998719 -0.36 -0.3606113985921487 -0.3700000000000001 -0.3815369041678648 -0.3850000000000001 -0.3789866261578863 -0.3700000000000001 -0.3637424484365224 -0.36 -0.357070591538954 -0.355 -0.3556563780171251 -0.36 -0.3675258076032579 -0.3750000000000001 -0.3781746636137818 -0.3750000000000001 -0.368909186225946 -0.365 -0.364822728171272 -0.365 -0.363012517543569 -0.36 -0.3588847804464428 -0.36 -0.3622438768273632 -0.365 -0.3683813266007861 -0.3700000000000001 -0.3660647481946788 -0.355 -0.3409100855915171 -0.3300000000000001 -0.3255049996644104 -0.3250000000000001 -0.3249651434083892 -0.3250000000000001 -0.3281448397382599 -0.3350000000000001 -0.3411735364810529 -0.3400000000000001 -0.3296868852910768 -0.3150000000000001 -0.3038269156329085 -0.3 -0.3008790635184541 -0.3 -0.2949562533021262 -0.29 -0.2907262401609187 -0.295 -0.2955073824561832 -0.29 -0.2851509190055536 -0.285 -0.2839009900875627 -0.2750000000000001 -0.2624675083585366 -0.2550000000000001 -0.2529967766542048 -0.2500000000000001 -0.2467045844711169 -0.2500000000000001 -0.2595608478279705 -0.2650000000000001 -0.2614289964343732 -0.2550000000000001 -0.2509252824456822 -0.2450000000000001 -0.235362411766565 -0.2300000000000001 -0.2356148416256439 -0.2450000000000001 -0.2476411860562422 -0.2450000000000001 -0.2470583945537263 -0.2550000000000001 -0.2597580882340324 -0.2550000000000001 -0.24556269040558 -0.24 -0.2424632653042423 -0.2500000000000001 -0.2560538993234922 -0.2550000000000001 -0.2487030312080987 -0.245 -0.2488339334495398 -0.2550000000000001 -0.2555366537201327 -0.25 -0.2462884365176884 -0.25 -0.2587504173416914 -0.265 -0.2645851804394393 -0.26 -0.2576981800732844 -0.2600000000000001 -0.2635559218629595 -0.2650000000000001 -0.2665931925321152 -0.27 -0.2709123537185085 -0.2650000000000001 -0.2582740477664703 -0.2600000000000001 -0.2689418973982321 -0.275 -0.2762294864290788 -0.2800000000000001 -0.2877640054199925 -0.29 -0.2829101407696668 -0.2750000000000001 -0.2726927532289321 -0.2700000000000001 -0.2629792368690242 -0.2600000000000001 -0.2685035119840205 -0.2800000000000001 -0.2829316719766945 -0.2800000000000001 -0.2812595865342021 -0.285 -0.2824808445433082 -0.2750000000000001 -0.2724957044667694 -0.2750000000000001 -0.272977280492128 -0.2650000000000001 -0.2622190671750856 -0.2700000000000001 -0.280266183966028 -0.285 -0.28716302518923 -0.29 -0.2887411659861032 -0.2800000000000001 -0.2723671692476798 -0.2750000000000001 -0.2832528733214604 -0.285 -0.2800910119582598 -0.2800000000000001 -0.2897807656067233 -0.3 -0.3020813488224389 -0.3 -0.3017578604678086 -0.305 -0.3023002977729344 -0.295 -0.2931522365079302 -0.3 -0.3078798879932385 -0.3100000000000001 -0.3093309050014999 -0.3100000000000001 -0.309729404919883 -0.305 -0.2988831186971347 -0.295 -0.2912081997809349 -0.285 -0.2814255863606733 -0.285 -0.2904107266909389 -0.29 -0.2883134343734453 -0.295 -0.3070309181978842 -0.3100000000000001 -0.3001931675295866 -0.29 -0.2897692996029345 -0.295 -0.2982503421913811 -0.3 -0.3030460286723816 -0.305 -0.3055533870045632 -0.3100000000000001 -0.3195490359264127 -0.3250000000000001 -0.3198594020567809 -0.3100000000000001 -0.3039736258654324 -0.3 -0.2937841574286683 -0.29 -0.296474419766667 -0.3100000000000001 -0.3205645287079141 -0.3250000000000001 -0.3280003955208466 -0.3300000000000001 -0.3259685795163856 -0.3150000000000001 -0.3042725055072979 -0.3 -0.3016847819785456 -0.305 -0.307675469692418 -0.3100000000000001 -0.3138511098137196 -0.3200000000000001 -0.3266362612574446 -0.3300000000000001 -0.3288950293178834 -0.3250000000000001 -0.3201866185328155 -0.3150000000000001 -0.3112493015536224 -0.3100000000000001 -0.3088572904349754 -0.305 -0.3020208978037803 -0.305 -0.3106846635790552 -0.3100000000000001 -0.3031623575204136 -0.3 -0.3038632492527882 -0.305 -0.2975199613601657 -0.29 -0.2923752176453822 -0.3 -0.302563324249584 -0.3 -0.3003723747183051 -0.305 -0.3078255468212046 -0.305 -0.2983998816159003 -0.29 -0.2822988274813038 -0.2800000000000001 -0.2858894458179329 -0.295 -0.3011940023462031 -0.305 -0.3104147958763542 -0.3150000000000001 -0.3130548684920292 -0.305 -0.2979031837573182 -0.295 -0.2934029456595085 -0.29 -0.2854010188880189 -0.2800000000000001 -0.2740581361088161 -0.2700000000000001 -0.2710456860755073 -0.2750000000000001 -0.2767478027544602 -0.2750000000000001 -0.2729734721835416 -0.2700000000000001 -0.2619075738280875 -0.2500000000000001 -0.2442856247329888 -0.2500000000000001 -0.2582205545126467 -0.2550000000000001 -0.2397270736769423 -0.2250000000000001 -0.2201680423888861 -0.2200000000000001 -0.2149917820454259 -0.205 -0.1987306860824408 -0.2 -0.2037702894666811 -0.205 -0.2071079463760496 -0.215 -0.2256675322133424 -0.2300000000000001 -0.2256579871329427 -0.2200000000000001 -0.2204986930705948 -0.2250000000000001 -0.2270392309388626 -0.225 -0.22344604963582 -0.225 -0.2279698016223668 -0.23 -0.2320000582138081 -0.235 -0.2383118639150332 -0.24 -0.2391896549785059 -0.235 -0.2278453327207507 -0.2200000000000001 -0.2143688683133626 -0.21 -0.2054357984465344 -0.205 -0.2180378080541353 -0.2450000000000001 -0.2722631937394479 -0.285 -0.2848878081150132 -0.285 -0.2919949091774338 -0.3 -0.3045854461869832 -0.31 -0.3202408878829068 -0.33 -0.3326897140501704 -0.33 -0.3274803855511673 -0.325 -0.3197721524484725 -0.315 -0.3159128429821167 -0.32 -0.3194729787857262 -0.315 -0.3156013428370625 -0.325 -0.3353202458760511 -0.3400000000000001 -0.3418891157151492 -0.345 -0.3454525996298119 -0.3400000000000001 -0.3355383290533424 -0.3400000000000001 -0.3486047899826311 -0.35 -0.3449872972426568 -0.345 -0.3526221082328029 -0.355 -0.3440868052176733 -0.3300000000000001 -0.3276009991805569 -0.3350000000000001 -0.3379866350680574 -0.3300000000000001 -0.3202250545454209 -0.3200000000000001 -0.3308302774290104 -0.3450000000000001 -0.3543925467762964 -0.3550000000000001 -0.3485606717787932 -0.3400000000000001 -0.3337517812669426 -0.3300000000000001 -0.3271736495726877 -0.3250000000000001 -0.325492888561387 -0.3300000000000001 -0.338735866360581 -0.3500000000000001 -0.3603145265999002 -0.365 -0.3631754773478762 -0.36 -0.3641580059564887 -0.3800000000000001 -0.4036310275883201 -0.425 -0.4376521912118166 -0.445 -0.4564963684601033 -0.475 -0.4945102726494999 -0.51 -0.5238656938251052 -0.535 -0.5319088259216035 -0.505 -0.461701383907723 -0.415 -0.3642175924018451 -0.3 -0.2270187083395106 -0.16 -0.09716869039994874 -0.015 0.1003994818854297 0.2349999999999999 0.3665591227484332 0.4899999999999999 0.6094233663783781 0.72 0.809830136525473 0.875 0.9183364554626806 0.9399999999999998 0.9361085424966679 0.9049999999999999 0.8453913363236688 0.7549999999999999 0.634292607151558 0.4899999999999999 0.3301440744201786 0.165 0.01195143719268073 -0.11 -0.198813078916252 -0.2700000000000001 -0.3354811203219997 -0.3900000000000001 -0.4266196166344008 -0.4499999999999999 -0.4672704423465558 -0.475 -0.4689991955988042 -0.4549999999999999 -0.4409168179016472 -0.4249999999999999 -0.405373931823902 -0.3899999999999999 -0.3869720149298312 -0.3899999999999999 -0.3888309754366663 -0.385 -0.3863860605161608 -0.39 -0.3873392898273582 -0.3799999999999999 -0.3774876224494378 -0.3799999999999999 -0.3805896992717887 -0.3799999999999999 -0.3858890429008651 -0.395 -0.3950820305543069 -0.3850000000000001 -0.3793328677229675 -0.3850000000000001 -0.3906442116848811 -0.3850000000000002 -0.3753695940880542 -0.3750000000000002 -0.3846029571346484 -0.3950000000000002 -0.4029686922910982 -0.4100000000000001 -0.4137349768392782 -0.4100000000000001 -0.4030822011417955 -0.4000000000000001 -0.3995598785750692 -0.3950000000000001 -0.3888103378723657 -0.3900000000000001 -0.3991133195078226 -0.4050000000000001 -0.4017430568175677 -0.3950000000000001 -0.3904286237022371 -0.3850000000000001 -0.3775165106855161 -0.3750000000000001 -0.3817845164272136 -0.3900000000000001 -0.3912395949749387 -0.3900000000000001 -0.3952324027598279 -0.4050000000000001 -0.4101775700398257 -0.4100000000000001 -0.4102279762468636 -0.41 -0.4023951901937501 -0.3900000000000001 -0.3846378205149312 -0.3900000000000001 -0.3957181302621733 -0.3950000000000001 -0.3955735372704532 -0.4050000000000001 -0.4156973461316323 -0.4150000000000001 -0.405261510511258 -0.4000000000000001 -0.4045784384958057 -0.4100000000000001 -0.4089423983698284 -0.4050000000000001 -0.4054646151800751 -0.4100000000000001 -0.4140179745811452 -0.415 -0.4137199019291987 -0.4100000000000001 -0.4045438542862244 -0.4000000000000001 -0.3990868918554824 -0.4000000000000001 -0.3991179560282985 -0.3950000000000001 -0.3906550486935382 -0.3900000000000001 -0.3955342860889312 -0.4050000000000001 -0.4120392087939831 -0.4100000000000001 -0.3999201880763497 -0.3900000000000001 -0.387490384308212 -0.3900000000000001 -0.3901393309380538 -0.3850000000000001 -0.3808180869659848 -0.3850000000000001 -0.3977726817048044 -0.4100000000000001 -0.4125111244871403 -0.4050000000000001 -0.3968912571143718 -0.3950000000000001 -0.3955599059258637 -0.3900000000000001 -0.379697043368857 -0.3750000000000001 -0.3811093965483422 -0.3900000000000001 -0.3936180716948089 -0.3950000000000001 -0.4016051348137523 -0.4100000000000001 -0.4100120915104813 -0.4000000000000001 -0.3908660449918675 -0.3900000000000001 -0.3924881516783005 -0.3900000000000001 -0.3846682929770378 -0.3850000000000001 -0.3939579944134918 -0.4050000000000001 -0.4120612886530429 -0.4150000000000001 -0.4163873936068578 -0.4150000000000001 -0.4088781820044559 -0.4000000000000001 -0.3944109315452728 -0.3950000000000001 -0.3997320884074109 -0.4050000000000001 -0.4101473277832995 -0.4150000000000001 -0.418569915390174 -0.42 -0.4205835211356232 -0.4200000000000001 -0.4162056140060244 -0.4100000000000001 -0.4083042408907984 -0.4150000000000001 -0.4237978829638389 -0.4250000000000001 -0.420275507919816 -0.4200000000000001 -0.4278936417788003 -0.4350000000000001 -0.4342897146888436 -0.4300000000000001 -0.4293358041052244 -0.4300000000000001 -0.4261953600819668 -0.4200000000000001 -0.4203983767276928 -0.4300000000000001 -0.4422543209491231 -0.4500000000000001 -0.4533289129771617 -0.4550000000000001 -0.4548740485786989 -0.4500000000000001 -0.4413440302265347 -0.4350000000000001 -0.4369865370018782 -0.4450000000000001 -0.4507540709987184 -0.4500000000000001 -0.4490239498721433 -0.4550000000000001 -0.4652754672133989 -0.4700000000000001 -0.466218482990399 -0.4600000000000001 -0.4568473867830038 -0.4550000000000001 -0.4521985739883667 -0.4500000000000001 -0.4510282937421579 -0.4550000000000001 -0.4616259572134102 -0.4700000000000001 -0.4761995184874843 -0.4750000000000001 -0.4676421180142675 -0.4600000000000001 -0.454856224926216 -0.4500000000000001 -0.4459488014035845 -0.4450000000000001 -0.4447768555060771 -0.4400000000000001 -0.4339661199375453 -0.4350000000000001 -0.4414367058095918 -0.4400000000000001 -0.4259176879146569 -0.4100000000000001 -0.4016597644844347 -0.3950000000000001 -0.382756037734432 -0.3700000000000001 -0.3651913040809073 -0.3650000000000001 -0.3624998759773362 -0.3600000000000001 -0.3629088804286293 -0.3650000000000001 -0.3563897364710273 -0.3400000000000001 -0.3285801056738178 -0.3250000000000001 -0.3213960373664294 -0.3150000000000001 -0.3134814790370689 -0.3200000000000001 -0.3276042081540536 -0.3300000000000001 -0.3299147053889553 -0.3300000000000001 -0.3273506541889211 -0.3200000000000001 -0.3130812965274652 -0.3100000000000001 -0.3068783336007753 -0.3000000000000001 -0.2952719719948234 -0.3000000000000001 -0.3116091668692664 -0.3200000000000001 -0.3214439310054454 -0.3200000000000001 -0.3186929976342926 -0.3150000000000001 -0.3088941034797443 -0.305 -0.3055778288694878 -0.305 -0.2993774087543729 -0.295 -0.3023955353906823 -0.3200000000000001 -0.3332155101924273 -0.3300000000000001 -0.315596855065118 -0.305 -0.3056566032803606 -0.3100000000000001 -0.3080597955629411 -0.3 -0.2953840479477209 -0.3 -0.3106093952510565 -0.3200000000000001 -0.3250162090627657 -0.3250000000000001 -0.3195491216380737 -0.3100000000000001 -0.303208958120849 -0.305 -0.31229547562749 -0.3150000000000001 -0.3099942326888652 -0.305 -0.3078895190572455 -0.3150000000000001 -0.3179030138467496 -0.3150000000000001 -0.3119398065093453 -0.3100000000000001 -0.3047662148536758 -0.295 -0.2880172557226592 -0.29 -0.2982751168176282 -0.305 -0.3077722480511593 -0.3100000000000001 -0.3148251198226709 -0.3200000000000001 -0.3209726452639177 -0.3150000000000001 -0.3054110425278322 -0.3 -0.3046929820524658 -0.3150000000000001 -0.3198874621361461 -0.3150000000000001 -0.3099561695812708 -0.3150000000000001 -0.3262466639121333 -0.3300000000000001 -0.3227095788894978 -0.3150000000000001 -0.3158505960457258 -0.3200000000000001 -0.3190134753514131 -0.3150000000000001 -0.3168111235716813 -0.3250000000000001 -0.3322579099030203 -0.3350000000000001 -0.33716641716608 -0.3400000000000001 -0.3395730228782798 -0.3350000000000001 -0.3325874621738428 -0.3350000000000001 -0.3359857386969106 -0.3300000000000001 -0.3231686538283642 -0.3250000000000001 -0.3353142167805568 -0.345 -0.3492409100501288 -0.35 -0.3490877827324118 -0.345 -0.3390808972348432 -0.3350000000000001 -0.3330945934782649 -0.3300000000000001 -0.327158466613127 -0.3300000000000001 -0.3386019055060819 -0.345 -0.3454261348122846 -0.345 -0.3471927674434411 -0.345 -0.3330865692422057 -0.3200000000000001 -0.3194214222695627 -0.3300000000000001 -0.3374560583161635 -0.3350000000000001 -0.3326081288211349 -0.3400000000000001 -0.3518882157640338 -0.355 -0.3463687726708919 -0.3350000000000001 -0.329737214250883 -0.3300000000000001 -0.330833465490248 -0.3300000000000001 -0.3302682705102334 -0.3350000000000001 -0.344669858619177 -0.355 -0.3606850255894324 -0.36 -0.356836089787844 -0.355 -0.3538679782711374 -0.35 -0.343903070475168 -0.3400000000000001 -0.3413086911110355 -0.345 -0.3465819488610596 -0.345 -0.343680607739315 -0.345 -0.3470371001580981 -0.345 -0.337797831004206 -0.3300000000000001 -0.3274547706010607 -0.3300000000000001 -0.3331593454762913 -0.3350000000000001 -0.338660377027882 -0.345 -0.3498227549083444 -0.35 -0.3491085726011349 -0.35 -0.3485100573098107 -0.3400000000000001 -0.3304603145851984 -0.3300000000000001 -0.338417215251114 -0.345 -0.3450887329923452 -0.345 -0.3499549046913416 -0.355 -0.3544726619129702 -0.35 -0.3455351140306036 -0.3400000000000001 -0.3331572082728965 -0.3300000000000001 -0.3340791026124412 -0.3400000000000001 -0.3414706049896009 -0.3400000000000001 -0.3402338024466768 -0.3400000000000001 -0.3354334757836611 -0.3300000000000001 -0.3306089608407897 -0.3350000000000001 -0.3350355503332532 -0.3300000000000001 -0.3287022793174646 -0.3350000000000001 -0.3425792887840157 -0.345 -0.3445817769938102 -0.345 -0.3445230144990199 -0.3400000000000001 -0.334091696666201 -0.3300000000000001 -0.32521211952422 -0.3150000000000001 -0.302259578815689 -0.295 -0.2962879340714299 -0.3 -0.2997154543610786 -0.295 -0.2896066916047407 -0.285 -0.2804522538205155 -0.2750000000000001 -0.2694217168355758 -0.2650000000000001 -0.2635512769089224 -0.2650000000000001 -0.2667343037721654 -0.2650000000000001 -0.259971947591069 -0.2550000000000001 -0.2523712376686289 -0.2500000000000001 -0.2458126247493118 -0.24 -0.233410478447909 -0.2250000000000001 -0.2166679477825132 -0.2150000000000001 -0.224871400708867 -0.24 -0.2481947728340431 -0.2450000000000001 -0.2392562994966312 -0.24 -0.2449921559477244 -0.2450000000000001 -0.238906185109888 -0.235 -0.2388552460961836 -0.2450000000000001 -0.2474396423405852 -0.2500000000000001 -0.2604623791957166 -0.2750000000000001 -0.281168725238814 -0.275 -0.2671105515079641 -0.265 -0.2621682735383343 -0.25 -0.234059121403884 -0.225 -0.2227706786586969 -0.22 -0.2193892227955319 -0.23 -0.2499862633333725 -0.265 -0.2689697884317266 -0.27 -0.2751203946406511 -0.28 -0.2814546036576617 -0.285 -0.2946970775744039 -0.305 -0.3118187602084026 -0.3200000000000001 -0.3321553910937468 -0.3400000000000001 -0.3367642777855255 -0.3300000000000001 -0.3301185185181493 -0.335 -0.3359758969605442 -0.335 -0.3411374440478571 -0.355 -0.3667697426510588 -0.3700000000000001 -0.3667236036660933 -0.36 -0.3515036181679062 -0.345 -0.3451859905235869 -0.35 -0.3536706970870023 -0.355 -0.3584658206719349 -0.365 -0.3711311885558624 -0.3750000000000001 -0.3783467889131526 -0.3800000000000001 -0.3768227613751597 -0.3700000000000001 -0.3655268866156011 -0.365 -0.3649997609708516 -0.3650000000000001 -0.3699969740830452 -0.3800000000000001 -0.3868859233899762 -0.3850000000000001 -0.3802623782451095 -0.3800000000000001 -0.3811666443565835 -0.3750000000000001 -0.3626411444259952 -0.3550000000000001 -0.3590439260492134 -0.3700000000000001 -0.380820062082162 -0.3900000000000001 -0.3987863196761089 -0.4050000000000001 -0.4073422729640323 -0.41 -0.4193057064776855 -0.4350000000000001 -0.451523138763198 -0.4650000000000001 -0.4770718470309148 -0.49 -0.5043716528605898 -0.52 -0.5374798522722992 -0.555 -0.5678438169275997 -0.57 -0.5569344335979914 -0.525 -0.4732198071363811 -0.4050000000000001 -0.3282980740102877 -0.25 -0.1720779813357829 -0.09000000000000001 0.004489277663904072 0.12 0.258205959426403 0.4099999999999999 0.558469221029775 0.6899999999999999 0.7992335679434326 0.885 0.9417380141620165 0.9599999999999999 0.931105159842165 0.8499999999999999 0.7125724891772288 0.5199999999999999 0.2879944154645369 0.04999999999999998 -0.1588823476214899 -0.3200000000000001 -0.4329148543082277 -0.5 -0.5214359889373855 -0.505 -0.4725134331427125 -0.4450000000000001 -0.4279689637850244 -0.4149999999999999 -0.4032238945402986 -0.395 -0.3912646488331658 -0.3899999999999999 -0.3915413929568455 -0.3949999999999999 -0.3953030360898176 -0.3899999999999999 -0.387453989913937 -0.3949999999999999 -0.4053004441140463 -0.405 -0.3967902667046324 -0.395 -0.4022609776962753 -0.405 -0.3973871901523783 -0.39 -0.3914325012067624 -0.395 -0.3943722629616496 -0.395 -0.4025290913676042 -0.4100000000000001 -0.4097720000294396 -0.4050000000000002 -0.4021945244151933 -0.4000000000000002 -0.3974643692180421 -0.4000000000000002 -0.4093056061931819 -0.4150000000000001 -0.4105155555390189 -0.4050000000000001 -0.410006894769793 -0.4200000000000001 -0.4220926329645214 -0.4150000000000001 -0.4081599410576928 -0.4050000000000001 -0.4034780152026619 -0.4050000000000001 -0.4124532339016665 -0.4200000000000001 -0.4210130558859101 -0.4200000000000001 -0.4261563971370694 -0.4350000000000001 -0.433306508443119 -0.4200000000000001 -0.4094708221687076 -0.4100000000000001 -0.4133480196696236 -0.4100000000000001 -0.4038869254100133 -0.4050000000000001 -0.4144512594121929 -0.4250000000000001 -0.4303993924032756 -0.4300000000000001 -0.4255358920746993 -0.4200000000000001 -0.4163173238040697 -0.4150000000000001 -0.4134582269500454 -0.4100000000000001 -0.4075443761809818 -0.4100000000000001 -0.4176034134823078 -0.4250000000000001 -0.4265018276013026 -0.4200000000000001 -0.4093138415163962 -0.4000000000000001 -0.3955135152355611 -0.3950000000000001 -0.3969554723783718 -0.4000000000000001 -0.4020861868698611 -0.4000000000000001 -0.3953064541005696 -0.3950000000000001 -0.403881301621128 -0.4150000000000001 -0.4162948510924177 -0.4050000000000001 -0.3925717699676977 -0.3900000000000001 -0.3957630042471804 -0.4000000000000001 -0.3995642905435239 -0.4000000000000001 -0.4061971557562846 -0.4150000000000001 -0.4215902910807192 -0.4250000000000001 -0.4266048533217142 -0.4250000000000001 -0.419876514206679 -0.4150000000000001 -0.4143751299135327 -0.4150000000000001 -0.4125674767360089 -0.4100000000000001 -0.4147988121024235 -0.4250000000000001 -0.4299050081231257 -0.4250000000000001 -0.4193325925392095 -0.4200000000000001 -0.4213661905694844 -0.4150000000000001 -0.4049130121601316 -0.4000000000000001 -0.4003405982892153 -0.4000000000000001 -0.4012465082588096 -0.4100000000000001 -0.4220122736762091 -0.4250000000000001 -0.4175316944239338 -0.4100000000000001 -0.4078968718919051 -0.4050000000000001 -0.3985736787503473 -0.3950000000000001 -0.3976972804196761 -0.4000000000000001 -0.3987869818883891 -0.4000000000000001 -0.4054782771810431 -0.4050000000000001 -0.3940697564134439 -0.3850000000000001 -0.3898528294302903 -0.4000000000000001 -0.3997241448224271 -0.3900000000000001 -0.3853559010226034 -0.3900000000000001 -0.3959915794849113 -0.4000000000000001 -0.407062982241274 -0.4150000000000001 -0.414354344231517 -0.4050000000000001 -0.3999499149381772 -0.4050000000000001 -0.4109126853550067 -0.4100000000000001 -0.409123119812235 -0.4150000000000001 -0.4213725325534454 -0.4200000000000001 -0.4165423791945656 -0.4200000000000001 -0.4264004732369919 -0.4250000000000001 -0.4177355076829524 -0.4150000000000001 -0.4173188777988008 -0.4150000000000001 -0.4084710845674754 -0.4100000000000001 -0.4233780898647154 -0.4350000000000001 -0.4347500648059508 -0.4300000000000001 -0.4315822569044241 -0.4350000000000001 -0.4302892358652327 -0.4200000000000001 -0.4159943421650225 -0.4200000000000001 -0.4228973239242328 -0.4200000000000001 -0.4175140715752669 -0.4200000000000001 -0.4240155504845651 -0.4250000000000001 -0.424686402089768 -0.4250000000000001 -0.423079128822558 -0.4150000000000001 -0.4034557227371587 -0.3950000000000001 -0.3932435559973212 -0.3950000000000001 -0.3949036439076095 -0.3900000000000001 -0.3823267318067772 -0.3750000000000001 -0.3685063302689525 -0.3600000000000001 -0.3492163945350226 -0.3400000000000001 -0.3360330249397366 -0.3350000000000001 -0.3328883267362664 -0.3300000000000001 -0.3306763350550357 -0.3350000000000001 -0.3378374805115028 -0.3350000000000001 -0.3291604583469041 -0.3250000000000001 -0.3232863496319839 -0.3200000000000001 -0.3129973961563837 -0.3050000000000001 -0.3016813087821085 -0.3050000000000001 -0.3114589187235191 -0.3150000000000001 -0.3136801938326149 -0.3100000000000001 -0.3072103945603957 -0.3050000000000001 -0.3023758202184622 -0.3000000000000001 -0.2995851310376485 -0.3 -0.2997364416276417 -0.3 -0.3039461373490101 -0.3100000000000001 -0.3127624124125158 -0.3100000000000001 -0.3073389617715427 -0.3100000000000001 -0.3152321778912429 -0.3150000000000001 -0.307676707049653 -0.3 -0.2993151615938013 -0.305 -0.3115424526368467 -0.3150000000000001 -0.3168887093314175 -0.3200000000000001 -0.3242495457785688 -0.3250000000000001 -0.3191933573068958 -0.3100000000000001 -0.3047572074925332 -0.305 -0.3058250636440945 -0.305 -0.3087686709388567 -0.3200000000000001 -0.3292636101748039 -0.3250000000000001 -0.3119095804843774 -0.305 -0.3083869121038941 -0.3100000000000001 -0.302613322246451 -0.295 -0.2984475192409806 -0.3100000000000001 -0.3198737339144404 -0.3250000000000001 -0.3286535481421021 -0.3300000000000001 -0.32628443077212 -0.3200000000000001 -0.3177099173873878 -0.3200000000000001 -0.3217260732179926 -0.3200000000000001 -0.319244131410079 -0.3250000000000001 -0.3375515148326898 -0.35 -0.3546371362293961 -0.35 -0.343080652106466 -0.3400000000000001 -0.3390163228132761 -0.3350000000000001 -0.3300806162381602 -0.3300000000000001 -0.3338528235694585 -0.3350000000000001 -0.3344284673770254 -0.3400000000000001 -0.3522427620086597 -0.36 -0.3569517543470961 -0.35 -0.3480457119545565 -0.35 -0.3520638922431029 -0.355 -0.3592931185712291 -0.36 -0.3562038795556491 -0.355 -0.3604955841080721 -0.365 -0.3616411114105884 -0.355 -0.3521986819988332 -0.35 -0.343953153138392 -0.3400000000000001 -0.3458943560042094 -0.355 -0.3555003566144028 -0.35 -0.3526571983885979 -0.365 -0.3722497507199557 -0.365 -0.3532215738257129 -0.35 -0.354084241986364 -0.355 -0.350948039305613 -0.35 -0.3578723263185978 -0.3700000000000001 -0.3785419424602736 -0.3800000000000001 -0.376311552414564 -0.3700000000000001 -0.3635860200981678 -0.36 -0.3614672039589347 -0.365 -0.3648328598368781 -0.36 -0.3580752852964133 -0.365 -0.3758867037843685 -0.3800000000000001 -0.3755089351869407 -0.3700000000000001 -0.3680898479811355 -0.365 -0.3573465841264092 -0.35 -0.3485915098751753 -0.35 -0.3494520431007843 -0.35 -0.3580811787286753 -0.3700000000000001 -0.3740075729126271 -0.365 -0.3517954940967679 -0.345 -0.3451620987950665 -0.345 -0.3417094334970501 -0.3400000000000001 -0.3451362616616221 -0.355 -0.3629903391537271 -0.365 -0.3629591780342342 -0.36 -0.3573379601818507 -0.355 -0.3543063283906238 -0.355 -0.3550591281709148 -0.355 -0.3609122920255073 -0.3750000000000001 -0.3875569217110638 -0.3850000000000001 -0.3687451520789452 -0.355 -0.3546201985028535 -0.36 -0.3596677843366369 -0.355 -0.3551780986703466 -0.36 -0.3618047104210936 -0.36 -0.3626257747456701 -0.3700000000000001 -0.3711586310753807 -0.36 -0.3470426444355124 -0.345 -0.3518248271874165 -0.355 -0.3504406875896493 -0.345 -0.3441682610627048 -0.345 -0.3447658168286488 -0.345 -0.3455461319686741 -0.3400000000000001 -0.3256199200004435 -0.3100000000000001 -0.3033826297266664 -0.3050000000000001 -0.3065776132340068 -0.305 -0.3056140137158014 -0.3100000000000001 -0.3115953565937027 -0.305 -0.2953148345734085 -0.29 -0.2886496173114871 -0.285 -0.2786443280647118 -0.2750000000000001 -0.2768259285160318 -0.2800000000000001 -0.2809448223945319 -0.2800000000000001 -0.2784452583948804 -0.2750000000000001 -0.2698373800845493 -0.2650000000000001 -0.2609903930472713 -0.2550000000000001 -0.2477316583146444 -0.2450000000000001 -0.2508292129290819 -0.2600000000000001 -0.2648446071631885 -0.2650000000000001 -0.2674963453521407 -0.2750000000000001 -0.281620279386442 -0.2800000000000001 -0.2717285315482822 -0.2650000000000001 -0.2654303351767098 -0.2700000000000001 -0.2734630315263665 -0.2750000000000001 -0.277527926931342 -0.2800000000000001 -0.2788506331422568 -0.2750000000000001 -0.2751080444915004 -0.2800000000000001 -0.2817496464786939 -0.275 -0.2669420490873521 -0.2650000000000001 -0.2641579599891807 -0.2550000000000001 -0.2424807744341014 -0.24 -0.2496155067634508 -0.2600000000000001 -0.267558029699123 -0.2800000000000001 -0.2984677897426248 -0.3100000000000001 -0.3093768806377971 -0.3100000000000001 -0.3246422426720189 -0.345 -0.3564093518530526 -0.36 -0.3676826047590033 -0.3800000000000001 -0.3868513536766262 -0.3850000000000001 -0.3816164674294196 -0.3800000000000001 -0.3761136552805339 -0.3700000000000001 -0.3686780421960598 -0.375 -0.3822627812122945 -0.3850000000000001 -0.3859843630462686 -0.3900000000000001 -0.3948103879944044 -0.3950000000000001 -0.3900174834881178 -0.3850000000000001 -0.3838654600505378 -0.3850000000000001 -0.3852739303405752 -0.3850000000000001 -0.3880489341016158 -0.3950000000000001 -0.4019570266441523 -0.4050000000000001 -0.4044813324341578 -0.4000000000000001 -0.3893136480616023 -0.3750000000000001 -0.3681896352300709 -0.3750000000000001 -0.3864492274099093 -0.3900000000000001 -0.388856823907368 -0.3950000000000001 -0.4081922835215903 -0.4150000000000001 -0.41084705759757 -0.4050000000000001 -0.4033504459200082 -0.4000000000000002 -0.3928461321981682 -0.3900000000000002 -0.3962617450457305 -0.4050000000000002 -0.4126098407085846 -0.4250000000000002 -0.4441458278702611 -0.4600000000000001 -0.4673258669554914 -0.4750000000000001 -0.4903871979589979 -0.505 -0.5096678287686529 -0.51 -0.5160403911034434 -0.525 -0.5308238254776849 -0.54 -0.5642705803022172 -0.6 -0.6306756215032894 -0.645 -0.6437269673521703 -0.63 -0.6060373456525554 -0.575 -0.5390129577410048 -0.4950000000000001 -0.4418035613104243 -0.3850000000000001 -0.3295246032335753 -0.2700000000000001 -0.1986829919087525 -0.115 -0.02082155478504336 0.08999999999999997 0.22307266739768 0.3699999999999999 0.511595967826954 0.6349999999999999 0.735897981197068 0.8099999999999999 0.8513963149017142 0.8599999999999999 0.8360246940168423 0.7699999999999999 0.6484894775545492 0.4749999999999999 0.2723600380309298 0.06499999999999999 -0.1325890225241624 -0.305 -0.4313563000802542 -0.5 -0.5224468129137586 -0.52 -0.5039458238256481 -0.4750000000000001 -0.439316683247403 -0.4100000000000001 -0.394940856021517 -0.39 -0.3888659035987789 -0.3899999999999998 -0.3942969426861174 -0.3999999999999999 -0.4055284033697081 -0.4099999999999999 -0.4111180003707056 -0.4049999999999999 -0.3936049889844035 -0.385 -0.3850528717648526 -0.39 -0.3935235459038108 -0.395 -0.3987235163074618 -0.405 -0.4097927641972451 -0.41 -0.4075100030956736 -0.405 -0.4031237247125261 -0.4000000000000001 -0.3949978323583717 -0.3900000000000002 -0.3894303335411838 -0.3950000000000002 -0.4036579699717431 -0.4100000000000001 -0.4131478220059671 -0.4150000000000001 -0.4151798001125396 -0.4100000000000001 -0.4008523880179795 -0.3950000000000001 -0.3977712233639895 -0.4050000000000001 -0.4098610056086288 -0.4100000000000001 -0.4078788457756851 -0.4050000000000001 -0.4032640827646222 -0.4050000000000001 -0.4095246236272551 -0.4100000000000001 -0.4019049769623484 -0.3900000000000001 -0.383686875809173 -0.3850000000000001 -0.3884437706880983 -0.3900000000000001 -0.3915133674033312 -0.3950000000000001 -0.3985808309139933 -0.4000000000000001 -0.3998231607170575 -0.4000000000000001 -0.4004427657613159 -0.4000000000000001 -0.3978930326778383 -0.3950000000000001 -0.3933093137645202 -0.3950000000000001 -0.4000067947741461 -0.4050000000000001 -0.4067653782843918 -0.4050000000000001 -0.4023147199014557 -0.4000000000000001 -0.3979243516025763 -0.3950000000000001 -0.3908845726853178 -0.3850000000000001 -0.3786471309069216 -0.3750000000000001 -0.3775011076042366 -0.3850000000000001 -0.3924695544490946 -0.3950000000000001 -0.393008886318962 -0.3900000000000001 -0.3880716905694166 -0.3850000000000001 -0.3795172370303542 -0.3750000000000001 -0.3770490990693529 -0.3850000000000001 -0.3924738116296533 -0.3950000000000001 -0.3950939125313032 -0.3950000000000001 -0.3923565547167396 -0.3850000000000001 -0.3776151868320779 -0.3750000000000001 -0.3754223894839508 -0.3750000000000001 -0.3769277644040195 -0.3850000000000001 -0.3940392688947624 -0.3950000000000001 -0.3903963325930703 -0.3900000000000001 -0.3937574333205827 -0.3900000000000001 -0.3761675006226714 -0.3650000000000001 -0.3667253217481599 -0.3750000000000001 -0.3806729266798243 -0.3850000000000001 -0.3918281344303325 -0.3950000000000001 -0.388707178728209 -0.3800000000000001 -0.3799379297041947 -0.3850000000000001 -0.3834697563752426 -0.3750000000000001 -0.3721681601300857 -0.3800000000000001 -0.3891771906400992 -0.3900000000000001 -0.3847770068037345 -0.3800000000000001 -0.3773227264631316 -0.3750000000000001 -0.3739857661394316 -0.3750000000000001 -0.3760457351709912 -0.3750000000000001 -0.3739022435026664 -0.3750000000000001 -0.3776216767757671 -0.3800000000000001 -0.3837610230135538 -0.3900000000000001 -0.3945062586705871 -0.3900000000000001 -0.3768570494214026 -0.3650000000000001 -0.363686691851045 -0.3700000000000001 -0.3746299333170433 -0.3750000000000001 -0.3776715353837324 -0.3850000000000001 -0.3906234899407347 -0.3900000000000001 -0.3885615334001217 -0.3900000000000001 -0.3874638196805562 -0.3750000000000001 -0.362823522480837 -0.365 -0.3780557895573075 -0.3850000000000001 -0.3816187577993495 -0.3800000000000001 -0.3862961778978536 -0.3900000000000001 -0.3835960242598624 -0.3750000000000001 -0.3736620279935547 -0.3750000000000001 -0.371195353336933 -0.3650000000000001 -0.3645265009637835 -0.3700000000000001 -0.3772266046447639 -0.3850000000000001 -0.3926670274186178 -0.3950000000000001 -0.3902721282388204 -0.3850000000000001 -0.3848848534873908 -0.3850000000000001 -0.3790775875515872 -0.3700000000000001 -0.3651491329887225 -0.3650000000000001 -0.3665809302207288 -0.3700000000000001 -0.3750879120844166 -0.3750000000000001 -0.3647942603133607 -0.3500000000000001 -0.3401067484547233 -0.3350000000000001 -0.3285669417918947 -0.3200000000000001 -0.3148842563954392 -0.3150000000000001 -0.3174037199916321 -0.3200000000000001 -0.3232260471979588 -0.3250000000000001 -0.3223410028964549 -0.3150000000000001 -0.3054290642536512 -0.2950000000000001 -0.286564051869414 -0.2850000000000001 -0.2918717385894249 -0.3000000000000001 -0.3011493083115061 -0.2950000000000001 -0.2882659419964329 -0.285 -0.2846720707025493 -0.285 -0.2841732826793009 -0.2800000000000001 -0.2736289699937663 -0.2700000000000001 -0.2730361563986081 -0.2800000000000001 -0.2861346750169913 -0.29 -0.2930819703265512 -0.295 -0.2953492797464485 -0.295 -0.2941118827183232 -0.29 -0.2833372917437147 -0.2800000000000001 -0.2839154734334652 -0.29 -0.2927286849199003 -0.295 -0.3024334655868013 -0.3100000000000001 -0.3074086917007827 -0.295 -0.285465181506237 -0.285 -0.2858269057904995 -0.2800000000000001 -0.2732036857086501 -0.2750000000000001 -0.2850279949424733 -0.295 -0.3013596967184232 -0.305 -0.3050516479691964 -0.3 -0.2947794530539062 -0.295 -0.2977731884481521 -0.295 -0.2876429529324592 -0.285 -0.291355011314527 -0.3 -0.3044892787730615 -0.305 -0.3036997175442115 -0.3 -0.2957369909921395 -0.295 -0.2980024418227618 -0.3 -0.3008128143709459 -0.305 -0.3122595195806632 -0.3150000000000001 -0.3116310029034168 -0.3100000000000001 -0.314043766428944 -0.3150000000000001 -0.3061431603697943 -0.295 -0.2933580456570394 -0.3 -0.3060664793363924 -0.3100000000000001 -0.317943331807198 -0.3300000000000001 -0.3389251406957046 -0.3400000000000001 -0.3359114014666066 -0.3300000000000001 -0.3240160548814816 -0.3200000000000001 -0.3196509041880554 -0.3200000000000001 -0.3177115974896587 -0.3150000000000001 -0.3175018392925184 -0.3250000000000001 -0.3320684817665678 -0.3350000000000001 -0.3343940557367036 -0.3300000000000001 -0.3220235865910794 -0.3150000000000001 -0.3150059559798405 -0.3200000000000001 -0.3222679761099586 -0.3200000000000001 -0.3210409678699097 -0.3300000000000001 -0.3408543677177076 -0.345 -0.342883791409619 -0.3400000000000001 -0.3381538197836798 -0.3350000000000001 -0.3312779379854078 -0.3300000000000001 -0.3319127249603133 -0.3350000000000001 -0.3392597308931979 -0.345 -0.3497428453450757 -0.35 -0.3472242396588049 -0.345 -0.3434821360079542 -0.3400000000000001 -0.3359921337619203 -0.3350000000000001 -0.3362447933671975 -0.3350000000000001 -0.3313829422718367 -0.3300000000000001 -0.3323920200897777 -0.3350000000000001 -0.3369739403512273 -0.3400000000000001 -0.3413857699994273 -0.3350000000000001 -0.3238541212804981 -0.3200000000000001 -0.3287742815840859 -0.3400000000000001 -0.3428693995175301 -0.3400000000000001 -0.3415798336687391 -0.35 -0.3595736825885941 -0.365 -0.3651472322882351 -0.36 -0.3517597087682303 -0.345 -0.3431908419913474 -0.345 -0.347791138792419 -0.35 -0.3508494464561682 -0.35 -0.3495639905190731 -0.35 -0.3474692125102574 -0.3400000000000001 -0.3352074581754056 -0.3400000000000001 -0.347331165440652 -0.345 -0.3383485234613721 -0.345 -0.3661317627218906 -0.3800000000000001 -0.3734656248861862 -0.36 -0.3570394377671026 -0.36 -0.3554611273600063 -0.345 -0.3409545486271948 -0.345 -0.3489856938810498 -0.35 -0.352232326852024 -0.355 -0.3529481508422203 -0.345 -0.3361354141230926 -0.3300000000000001 -0.3279268017089554 -0.3300000000000001 -0.3339062585313039 -0.3350000000000001 -0.3337044587651452 -0.3350000000000001 -0.3393667207455741 -0.3400000000000001 -0.3349060868570418 -0.3300000000000001 -0.3275404852702739 -0.3200000000000001 -0.3043928235327745 -0.29 -0.2862300049113199 -0.29 -0.2947823255693877 -0.3 -0.3055741021892638 -0.305 -0.2955992272927427 -0.285 -0.2808920557943352 -0.2800000000000001 -0.2772369586200149 -0.2750000000000001 -0.2772191230907873 -0.2800000000000001 -0.2786914859619272 -0.2750000000000001 -0.2724968604149615 -0.2700000000000001 -0.2670063763620835 -0.2650000000000001 -0.261354344610048 -0.2500000000000001 -0.2351745840956921 -0.2300000000000001 -0.2377468370742027 -0.2450000000000001 -0.2430080724091566 -0.24 -0.2458129626781925 -0.2550000000000001 -0.2579729812093944 -0.2550000000000001 -0.2510270803861582 -0.2450000000000001 -0.2372034115156314 -0.235 -0.2432486343093256 -0.2550000000000001 -0.2622848986623624 -0.2650000000000001 -0.2649504333893891 -0.2600000000000001 -0.2535692283322808 -0.2550000000000001 -0.2647344612510275 -0.27 -0.2661353533281192 -0.265 -0.2739779806294203 -0.28 -0.27071385592347 -0.2550000000000001 -0.2487423340456855 -0.2500000000000001 -0.2481029360796389 -0.245 -0.2512726715682909 -0.265 -0.2752006750727072 -0.2800000000000001 -0.2877880059179837 -0.3 -0.3099805506707779 -0.3150000000000001 -0.3195476725736027 -0.3250000000000001 -0.3298118320709848 -0.3350000000000001 -0.3419862336448277 -0.345 -0.3390169883010792 -0.3300000000000001 -0.3287205346256679 -0.3350000000000001 -0.3408983656876615 -0.345 -0.3521824069730338 -0.36 -0.3593844914748257 -0.35 -0.3418334049218258 -0.3400000000000001 -0.3386660121964246 -0.3350000000000001 -0.3356321957717642 -0.345 -0.3558026009469631 -0.36 -0.3606455886288505 -0.365 -0.3721062636206376 -0.3750000000000001 -0.3727844242496134 -0.3700000000000001 -0.3682917586763974 -0.365 -0.3620455218436875 -0.365 -0.3738239120137699 -0.3800000000000001 -0.3787320821630744 -0.3750000000000001 -0.3748348539332648 -0.3750000000000001 -0.370523246865626 -0.365 -0.3658405998877304 -0.3700000000000001 -0.3679276947170236 -0.3600000000000001 -0.3590027483384533 -0.3700000000000001 -0.3811951577366979 -0.3800000000000001 -0.3707827978402208 -0.3650000000000001 -0.3638551578969937 -0.3600000000000001 -0.3532467516882163 -0.3500000000000001 -0.3519463036294065 -0.355 -0.3599477190877293 -0.3700000000000001 -0.3810362991955735 -0.3850000000000001 -0.385644734203948 -0.3950000000000001 -0.4142062183396376 -0.43 -0.4367036556914123 -0.4450000000000001 -0.4637246695640247 -0.485 -0.5000346845018029 -0.515 -0.5394399560433862 -0.5649999999999999 -0.5726988133645579 -0.555 -0.5201086737171714 -0.475 -0.4195766571665509 -0.355 -0.2878036832049455 -0.2200000000000001 -0.1452781317292302 -0.05500000000000002 0.05493788196212365 0.1849999999999999 0.3296171879363077 0.4749999999999999 0.6034877035172681 0.705 0.777753207321602 0.82 0.8237746768757588 0.7799999999999999 0.6832227126572434 0.5349999999999999 0.3471639797331325 0.145 -0.04295169031654153 -0.2000000000000001 -0.3253296552135051 -0.4200000000000001 -0.4791007127339361 -0.5 -0.4942498868935277 -0.48 -0.4664075547087353 -0.4500000000000001 -0.4288649774840471 -0.4099999999999999 -0.4013733762435734 -0.4 -0.3970187290509655 -0.3899999999999999 -0.3861429120958797 -0.3899999999999999 -0.3969753773614974 -0.3999999999999999 -0.4005249008368677 -0.4049999999999999 -0.4152093745298578 -0.4249999999999999 -0.4286320014528371 -0.425 -0.4162631132847568 -0.405 -0.3963261342070574 -0.395 -0.4002599122480995 -0.405 -0.405344201093736 -0.4050000000000001 -0.4092001703335603 -0.4150000000000001 -0.4146296191029339 -0.4050000000000002 -0.3924201767737253 -0.3850000000000002 -0.3855304633108961 -0.3900000000000001 -0.3937667906425189 -0.3950000000000001 -0.3951354826533138 -0.3950000000000001 -0.3949058392169486 -0.3950000000000001 -0.3957819045920398 -0.3950000000000001 -0.3906068309214227 -0.3850000000000001 -0.3847319460833007 -0.3900000000000001 -0.3931851834361141 -0.3900000000000001 -0.3891810523437644 -0.4000000000000001 -0.4170055934274357 -0.4250000000000001 -0.4195628935584317 -0.4100000000000001 -0.4040893501759524 -0.4000000000000001 -0.3958541506796954 -0.3950000000000001 -0.3979922734529483 -0.4000000000000001 -0.4001514434628519 -0.4050000000000001 -0.4162246091296501 -0.4250000000000001 -0.4233911728160757 -0.4150000000000001 -0.4080532608817666 -0.4050000000000001 -0.4043244191833089 -0.4050000000000001 -0.4058959382334074 -0.4050000000000001 -0.4050453376712136 -0.4100000000000001 -0.4164229719741963 -0.4150000000000001 -0.407057024784124 -0.4050000000000001 -0.4135408065108937 -0.4200000000000001 -0.4144722231356879 -0.4050000000000001 -0.4044314249225328 -0.4100000000000001 -0.4117090328345819 -0.4100000000000001 -0.413229957691164 -0.4200000000000001 -0.4212642674118864 -0.4150000000000001 -0.4086248718773641 -0.4050000000000001 -0.4006538245528662 -0.3950000000000001 -0.3930380521814152 -0.3950000000000001 -0.3960852289902439 -0.3950000000000001 -0.3963361256691878 -0.4000000000000001 -0.4001964644091744 -0.3950000000000001 -0.3915421796281067 -0.3950000000000001 -0.4017718601992983 -0.4050000000000001 -0.4045493780732226 -0.4050000000000001 -0.4102393900057913 -0.4200000000000001 -0.4306800160028977 -0.4350000000000001 -0.4283248509085307 -0.4150000000000001 -0.4060931036386746 -0.4050000000000001 -0.4036324649535699 -0.3950000000000001 -0.3864892817573877 -0.3900000000000001 -0.4044635275191149 -0.4150000000000001 -0.4128889429608637 -0.4050000000000001 -0.402489721703791 -0.4050000000000001 -0.4049646709075335 -0.4000000000000001 -0.3956791774688402 -0.3950000000000001 -0.3954263883932567 -0.3950000000000001 -0.3973545610097076 -0.4050000000000001 -0.4145957124760814 -0.4200000000000001 -0.4195874780907399 -0.4150000000000001 -0.4080087967789036 -0.4000000000000001 -0.394811700560742 -0.3950000000000001 -0.3983458263065894 -0.4000000000000001 -0.4005184358462637 -0.4050000000000001 -0.4152840661388014 -0.4250000000000001 -0.4277825946839519 -0.4250000000000001 -0.4235327359973511 -0.4250000000000001 -0.424682909423697 -0.4200000000000001 -0.4175742461124381 -0.4250000000000001 -0.4398068051039477 -0.4500000000000001 -0.4494511115902115 -0.4450000000000001 -0.4461990532071494 -0.4500000000000001 -0.4461810307591187 -0.4350000000000001 -0.4315550803642773 -0.4450000000000001 -0.4640410772728933 -0.4700000000000001 -0.4619070666477815 -0.4550000000000001 -0.457621015990177 -0.4600000000000001 -0.4523272870934497 -0.4400000000000001 -0.4345204557468133 -0.4350000000000001 -0.4322348405293086 -0.4250000000000001 -0.4228069633105416 -0.4300000000000001 -0.4398486280225676 -0.4450000000000001 -0.4472538095469759 -0.4500000000000001 -0.4506696538608271 -0.4450000000000001 -0.4361551166985031 -0.4300000000000001 -0.4263426792760443 -0.4200000000000001 -0.412065128086996 -0.4100000000000001 -0.4169003964432141 -0.4250000000000001 -0.4259278117523031 -0.4200000000000001 -0.4128784956864764 -0.4050000000000001 -0.3934528341908733 -0.3800000000000001 -0.371669140030948 -0.3700000000000001 -0.3691236549973467 -0.3650000000000001 -0.3622794154389258 -0.3650000000000001 -0.3685508583164404 -0.3650000000000001 -0.3549908529315762 -0.3450000000000001 -0.3376985031795697 -0.3300000000000001 -0.3215584930376231 -0.3150000000000001 -0.3104036986121543 -0.3050000000000001 -0.301335067056366 -0.3050000000000001 -0.3146149664636525 -0.3200000000000001 -0.3163053792446524 -0.3100000000000001 -0.3087235598507629 -0.3100000000000001 -0.3083520644039028 -0.3050000000000001 -0.3056192185968222 -0.3100000000000001 -0.3136347122068435 -0.3150000000000001 -0.3171011101664932 -0.3200000000000001 -0.3200584056007657 -0.3150000000000001 -0.308413639692687 -0.305 -0.3054598629897668 -0.305 -0.3002783818245782 -0.295 -0.29787639347239 -0.3100000000000001 -0.3208352761185116 -0.3200000000000001 -0.3122856622302922 -0.3100000000000001 -0.3147608370274418 -0.3150000000000001 -0.3053943163358663 -0.295 -0.2940938040170302 -0.3 -0.3045237950396678 -0.305 -0.3036861686526203 -0.3 -0.2929718700700693 -0.285 -0.2803097426556929 -0.2800000000000001 -0.2837969495211857 -0.29 -0.2947564902131586 -0.295 -0.2959047675326595 -0.305 -0.3192595262612528 -0.3250000000000001 -0.3169163479693307 -0.305 -0.3000708310184562 -0.3 -0.2993166638444658 -0.3 -0.3063956131985215 -0.3150000000000001 -0.3207610909431475 -0.3250000000000001 -0.330981047240192 -0.3350000000000001 -0.3323449931807051 -0.3250000000000001 -0.3186917480998354 -0.3150000000000001 -0.3146475675535529 -0.3200000000000001 -0.3296283634132165 -0.3350000000000001 -0.3325182171502497 -0.3300000000000001 -0.3347592500283197 -0.3400000000000001 -0.335631223976502 -0.3250000000000001 -0.3208234139058856 -0.3250000000000001 -0.3268398847866775 -0.3200000000000001 -0.3126526524174967 -0.3150000000000001 -0.3259411524919563 -0.3350000000000001 -0.3364693695859031 -0.3350000000000001 -0.3383730998137757 -0.345 -0.3452331721139427 -0.3350000000000001 -0.3246108277100605 -0.3250000000000001 -0.3315204483182054 -0.3300000000000001 -0.3196843642670041 -0.3150000000000001 -0.3238236096032314 -0.3350000000000001 -0.3360774612343934 -0.3300000000000001 -0.3275380206433589 -0.3300000000000001 -0.3314758308278744 -0.3300000000000001 -0.3291021297022936 -0.3300000000000001 -0.331910821380626 -0.3350000000000001 -0.3389706293741618 -0.3400000000000001 -0.3360849385832693 -0.3300000000000001 -0.3249444831475267 -0.3200000000000001 -0.3154661040673461 -0.3150000000000001 -0.3197922305101589 -0.3250000000000001 -0.3285602765160817 -0.3350000000000001 -0.3464513804137169 -0.355 -0.3532219454873508 -0.345 -0.3400089124095979 -0.3400000000000001 -0.3395722035882069 -0.3350000000000001 -0.3275523834043044 -0.3200000000000001 -0.3174083321710005 -0.3250000000000001 -0.3402544609581605 -0.35 -0.3446884935985861 -0.3300000000000001 -0.3189071305667928 -0.3150000000000001 -0.3139587423878668 -0.3150000000000001 -0.321445860944538 -0.3300000000000001 -0.332924935428177 -0.3300000000000001 -0.3297800172533595 -0.3350000000000001 -0.338460911446225 -0.3350000000000001 -0.3301834830442387 -0.3300000000000001 -0.3317341912078213 -0.3300000000000001 -0.3274968291159537 -0.3300000000000001 -0.3364027153899828 -0.3400000000000001 -0.3396908780114506 -0.3400000000000001 -0.3419324748736596 -0.3400000000000001 -0.3323583901490674 -0.3250000000000001 -0.3235671572025634 -0.3250000000000001 -0.3245911086960995 -0.3250000000000001 -0.332589977978745 -0.345 -0.3523903429245328 -0.35 -0.3439065462364067 -0.3400000000000001 -0.3365411043426666 -0.3300000000000001 -0.3233499282121456 -0.3200000000000001 -0.3169547412567611 -0.3100000000000001 -0.3037840868476198 -0.305 -0.3095302001645693 -0.305 -0.289495461851126 -0.2750000000000001 -0.270628825245016 -0.2700000000000001 -0.2638859123282372 -0.2550000000000001 -0.2534455093654727 -0.2600000000000001 -0.2657698565758614 -0.2650000000000001 -0.2616921944490904 -0.2600000000000001 -0.2575391070507888 -0.2500000000000001 -0.2402207174120135 -0.235 -0.2357289421440657 -0.235 -0.2277337849439418 -0.2200000000000001 -0.2228229970646816 -0.235 -0.2421939282348615 -0.235 -0.2228178739733787 -0.2200000000000001 -0.226433659624637 -0.2300000000000001 -0.2269287508833676 -0.2250000000000001 -0.2292611646537179 -0.235 -0.2392188444501904 -0.2450000000000001 -0.2526542645178221 -0.2550000000000001 -0.2488686996236466 -0.24 -0.2341703149339681 -0.23 -0.2271418613720043 -0.23 -0.2399728744430991 -0.25 -0.2544736948545718 -0.255 -0.2542947539459992 -0.25 -0.2410407737850138 -0.2300000000000001 -0.2182990907082471 -0.205 -0.194889453556432 -0.1950000000000001 -0.2032777264184698 -0.21 -0.215544507828126 -0.2300000000000001 -0.2534494125526602 -0.27 -0.2716953411770338 -0.27 -0.2766233146409331 -0.285 -0.2858669570618187 -0.285 -0.2938717395740025 -0.3100000000000001 -0.3229351583695302 -0.3300000000000001 -0.3356792227556126 -0.34 -0.3406166305316261 -0.34 -0.3419101803954934 -0.345 -0.3471153855929394 -0.35 -0.3527099247737556 -0.35 -0.3423408997864882 -0.3400000000000001 -0.3474316767701485 -0.355 -0.3528225248386859 -0.345 -0.3405900593246978 -0.3400000000000001 -0.3395701059248045 -0.3400000000000001 -0.3427949631124182 -0.345 -0.3472361345573231 -0.355 -0.366733427011086 -0.3700000000000001 -0.3613471142881297 -0.355 -0.3618781070398242 -0.3700000000000001 -0.3628226643268815 -0.345 -0.3354284125878117 -0.3400000000000001 -0.3500021917624327 -0.3600000000000001 -0.3716435852545292 -0.3800000000000001 -0.375624346658997 -0.3600000000000001 -0.347133756674037 -0.3450000000000001 -0.3484113164195623 -0.3500000000000001 -0.3498558240779628 -0.3500000000000001 -0.3510048791391553 -0.355 -0.3656748911573834 -0.3800000000000001 -0.3893288614092624 -0.3900000000000001 -0.3891602240237756 -0.3950000000000001 -0.4084689316573913 -0.425 -0.4412295140114622 -0.4550000000000001 -0.46548041837518 -0.475 -0.4892649755117742 -0.51 -0.5314518302907424 -0.545 -0.5474394800795733 -0.54 -0.5233105121132233 -0.4950000000000001 -0.4544998685486842 -0.4050000000000001 -0.3513931618808479 -0.295 -0.2330795842467351 -0.1600000000000001 -0.07035142991418042 0.03999999999999997 0.1706243947660562 0.3149999999999999 0.4606416955434691 0.595 0.7095324433626176 0.8 0.8610632184526419 0.8849999999999999 0.8640389305837712 0.7949999999999999 0.6786498952564619 0.5199999999999999 0.330289851995858 0.13 -0.05739214904695524 -0.2150000000000001 -0.3375378927786186 -0.4250000000000002 -0.4781152913090125 -0.5 -0.5003929297253841 -0.49 -0.4735077272346938 -0.45 -0.4225585564023426 -0.3999999999999999 -0.3897543426234719 -0.39 -0.3935650581031128 -0.3949999999999999 -0.3946213894102998 -0.3949999999999999 -0.3976643593853759 -0.4 -0.3978252376538016 -0.39 -0.3820941621483039 -0.3799999999999999 -0.3830648228117208 -0.385 -0.3840999725354532 -0.385 -0.3914317638907513 -0.4 -0.4063241996276011 -0.41 -0.4121876002463371 -0.4100000000000001 -0.4012154581900193 -0.3900000000000002 -0.3851914564126725 -0.3900000000000002 -0.3992576454208863 -0.4050000000000002 -0.4054300869174328 -0.4050000000000001 -0.4088273370661763 -0.4150000000000001 -0.4166810345208865 -0.4100000000000001 -0.4003482424125933 -0.3950000000000001 -0.3948022616692738 -0.3950000000000001 -0.3954444688308624 -0.4000000000000001 -0.4087191203364067 -0.415 -0.4158173716483233 -0.4150000000000001 -0.4159527335501582 -0.4150000000000001 -0.408733919755157 -0.4000000000000001 -0.3937296273449524 -0.3900000000000001 -0.3878151537037777 -0.3900000000000001 -0.3988741726764296 -0.4100000000000001 -0.4159465356919279 -0.4150000000000001 -0.4104674967825393 -0.4050000000000001 -0.3991647106214827 -0.3950000000000001 -0.3941970594428014 -0.3950000000000001 -0.3948198781127029 -0.3950000000000001 -0.398841711423551 -0.4050000000000001 -0.4092227230007321 -0.4100000000000001 -0.4101359254389514 -0.4100000000000001 -0.4070000777291453 -0.4000000000000001 -0.3930464750291396 -0.3900000000000001 -0.391293086216903 -0.3950000000000001 -0.4011666228087284 -0.4100000000000001 -0.4195834384821546 -0.4250000000000001 -0.4230409902812775 -0.4150000000000001 -0.4072107479912339 -0.4050000000000001 -0.4079701587311265 -0.4100000000000001 -0.4078206459679976 -0.4050000000000001 -0.4075730460603408 -0.4150000000000001 -0.4219161113161502 -0.4250000000000001 -0.4259578443868189 -0.4250000000000001 -0.4197831265243251 -0.4100000000000001 -0.4006307695238818 -0.3950000000000001 -0.3919146735799933 -0.3900000000000001 -0.3923995596389048 -0.4000000000000001 -0.4076464094883073 -0.4100000000000001 -0.4095946947833581 -0.4100000000000001 -0.4083194667446681 -0.4000000000000001 -0.3905535151650489 -0.3900000000000001 -0.3995076761356695 -0.4100000000000001 -0.4162357109264041 -0.4200000000000001 -0.4222322736039132 -0.4200000000000001 -0.4155849549466615 -0.4150000000000001 -0.4175530133628607 -0.4150000000000001 -0.4073351005430337 -0.4050000000000001 -0.4126854336662686 -0.4200000000000001 -0.4186016911631479 -0.4150000000000001 -0.4188354469036061 -0.4250000000000001 -0.4220295823800934 -0.4100000000000001 -0.4006486255394939 -0.4000000000000001 -0.4035686423602549 -0.4050000000000001 -0.4033321689110737 -0.4000000000000001 -0.3978694714050883 -0.4000000000000001 -0.4061758312141144 -0.4100000000000001 -0.4068669831074755 -0.4000000000000001 -0.3959250834801435 -0.3950000000000001 -0.3944767356401985 -0.3950000000000001 -0.3993231738995232 -0.4050000000000001 -0.408051588742363 -0.4100000000000001 -0.4161110797186062 -0.4250000000000001 -0.4293079347494188 -0.4250000000000001 -0.4165564522433828 -0.4100000000000001 -0.4079982931181124 -0.4100000000000001 -0.4148239639703885 -0.4200000000000001 -0.4245082916881488 -0.4300000000000001 -0.4381105349236012 -0.4450000000000001 -0.4454372502768093 -0.4400000000000001 -0.4355166105085629 -0.4350000000000001 -0.4344545915279984 -0.4300000000000001 -0.4261448724361955 -0.4300000000000001 -0.4411342470689898 -0.4500000000000001 -0.4500168520633163 -0.4450000000000001 -0.443312576945807 -0.4450000000000001 -0.4429360162735638 -0.4350000000000001 -0.4300790694696952 -0.4350000000000001 -0.4436782431266807 -0.4450000000000001 -0.4401911224735957 -0.4400000000000001 -0.447042344375407 -0.4500000000000001 -0.4416030734344451 -0.4300000000000001 -0.4270153385767326 -0.4300000000000001 -0.4271380820141156 -0.4150000000000001 -0.4033346556754176 -0.4000000000000001 -0.4016754026654345 -0.4000000000000001 -0.3932453050838319 -0.3850000000000001 -0.3767373360289862 -0.3650000000000001 -0.3491340455007704 -0.3350000000000001 -0.3293460682026131 -0.3300000000000001 -0.329255488450506 -0.3250000000000001 -0.3241913126849446 -0.3300000000000001 -0.3348230033250856 -0.3300000000000001 -0.3189272127713957 -0.3100000000000001 -0.3037607964339131 -0.2950000000000001 -0.2863393759817484 -0.2850000000000001 -0.2894108985764555 -0.2900000000000001 -0.2867780921243087 -0.2900000000000001 -0.3020184450224532 -0.3100000000000001 -0.3053032985418482 -0.2950000000000001 -0.2888863514509721 -0.2850000000000001 -0.2800551743661751 -0.2800000000000001 -0.2898938148316352 -0.3 -0.2985587930832946 -0.29 -0.288524788313705 -0.295 -0.297285221688053 -0.29 -0.2820430605404153 -0.2800000000000001 -0.2794335614593069 -0.2750000000000001 -0.2713950873768524 -0.2750000000000001 -0.2838147339577884 -0.29 -0.2910573458711249 -0.29 -0.2888317782599228 -0.285 -0.2774981116860892 -0.2700000000000001 -0.2677147498883291 -0.2700000000000001 -0.2716855925163698 -0.2700000000000001 -0.2695119319050586 -0.2750000000000001 -0.2843136668485687 -0.29 -0.2892688588588603 -0.285 -0.2802066458778712 -0.2750000000000001 -0.2719416516386196 -0.2750000000000001 -0.2833396883560835 -0.29 -0.2923306515631631 -0.295 -0.3011657784747122 -0.305 -0.3014336074609389 -0.295 -0.2935359028708023 -0.295 -0.292009099602417 -0.285 -0.2832667099607671 -0.29 -0.29780122992965 -0.3 -0.3004935117396715 -0.305 -0.3108077744581079 -0.3100000000000001 -0.3021378108084142 -0.295 -0.2950368253456687 -0.3 -0.3041115227649237 -0.305 -0.3057904321862681 -0.3100000000000001 -0.3177857735082851 -0.3250000000000001 -0.3276403207278636 -0.3250000000000001 -0.3199838935705087 -0.3150000000000001 -0.3113305702311023 -0.3100000000000001 -0.312002178507582 -0.3150000000000001 -0.3156959008959747 -0.3150000000000001 -0.3181756741513594 -0.3250000000000001 -0.3273697579897085 -0.3200000000000001 -0.310641259548161 -0.3100000000000001 -0.316804407796143 -0.3200000000000001 -0.3165680541886349 -0.3150000000000001 -0.3214301094624362 -0.3300000000000001 -0.3329111590039725 -0.3300000000000001 -0.3254553308972569 -0.3200000000000001 -0.3139012329111764 -0.3100000000000001 -0.3099172703820254 -0.3100000000000001 -0.3084841724063462 -0.3100000000000001 -0.3188291612224191 -0.3300000000000001 -0.3356783584952672 -0.3350000000000001 -0.3328042360602603 -0.3300000000000001 -0.3249163743991503 -0.3200000000000001 -0.3205187371157073 -0.3250000000000001 -0.3269784711690292 -0.3250000000000001 -0.3251142916039019 -0.3300000000000001 -0.3348878403650268 -0.3350000000000001 -0.3323420050960142 -0.3300000000000001 -0.3277550832495714 -0.3250000000000001 -0.324100832617031 -0.3250000000000001 -0.3239114922898529 -0.3200000000000001 -0.3193390990267676 -0.3250000000000001 -0.3308218265584275 -0.3300000000000001 -0.3260552134668104 -0.3250000000000001 -0.3236209653680787 -0.3150000000000001 -0.3044981017760536 -0.305 -0.3169699954412335 -0.3250000000000001 -0.3206890313728151 -0.3150000000000001 -0.3214599782977074 -0.3350000000000001 -0.3396574631253664 -0.3300000000000001 -0.316412242881858 -0.3100000000000001 -0.3127498823814305 -0.3200000000000001 -0.326874560584893 -0.3300000000000001 -0.3298315697595356 -0.3300000000000001 -0.3328074676988544 -0.3350000000000001 -0.3333315042186694 -0.3300000000000001 -0.3294344185350366 -0.3300000000000001 -0.3267603885827843 -0.3200000000000001 -0.3165654407165317 -0.3200000000000001 -0.3263914118978637 -0.3300000000000001 -0.3304554237188331 -0.3300000000000001 -0.3288448155644706 -0.3250000000000001 -0.3192420591259943 -0.3150000000000001 -0.3143805936924122 -0.3150000000000001 -0.314514766695119 -0.3150000000000001 -0.3208123784943371 -0.3300000000000001 -0.3345115243976025 -0.3300000000000001 -0.3227449752481932 -0.3200000000000001 -0.3197133250880411 -0.3150000000000001 -0.3075951355535936 -0.305 -0.3071243878298456 -0.305 -0.2973808469696263 -0.295 -0.3043654421133636 -0.3150000000000001 -0.3133640678101453 -0.3 -0.2857969139694373 -0.2750000000000001 -0.2646234032630349 -0.2550000000000001 -0.2517237555447867 -0.2550000000000001 -0.2588297468320924 -0.2600000000000001 -0.2618671913158022 -0.2650000000000001 -0.2639722857891331 -0.2550000000000001 -0.243056512711678 -0.235 -0.2319253767152035 -0.2300000000000001 -0.2275327411023613 -0.2250000000000001 -0.2226210323178328 -0.2200000000000001 -0.2188665186544964 -0.2200000000000001 -0.2202822168132881 -0.2150000000000001 -0.2058389579568896 -0.2000000000000001 -0.2014489700477482 -0.205 -0.2051529580175414 -0.205 -0.2121145008875021 -0.2250000000000001 -0.2340033669996792 -0.235 -0.2354738097250557 -0.24 -0.2408571629506218 -0.2300000000000001 -0.2160715984814281 -0.215 -0.2280972947516929 -0.24 -0.2415534077670712 -0.24 -0.2443789795204291 -0.25 -0.2471445955324281 -0.235 -0.2211053198662518 -0.21 -0.2024140246557254 -0.2000000000000001 -0.2060575114279089 -0.2200000000000001 -0.2379088367867565 -0.255 -0.2679374057167114 -0.275 -0.2791314927432303 -0.285 -0.2935145115195467 -0.3 -0.3025642103393198 -0.305 -0.311450054327353 -0.32 -0.3267816917896686 -0.3300000000000001 -0.3294329991609893 -0.325 -0.3200618136305323 -0.32 -0.3252580972130464 -0.33 -0.3304897660338679 -0.33 -0.3319200115741977 -0.3350000000000001 -0.3371503422696734 -0.3400000000000001 -0.3436842219855198 -0.345 -0.34253765456249 -0.3400000000000001 -0.3388364818960943 -0.3350000000000001 -0.326822879318288 -0.3200000000000001 -0.3201809974883385 -0.3250000000000001 -0.3300300446730362 -0.3350000000000001 -0.3409886083690027 -0.345 -0.3453530210285282 -0.345 -0.3461402286208043 -0.345 -0.3396130245547997 -0.3350000000000001 -0.3361960964121574 -0.3400000000000001 -0.342195170308511 -0.3450000000000001 -0.3512364069268472 -0.3550000000000001 -0.3497742259617442 -0.3400000000000001 -0.3364060003744955 -0.3400000000000001 -0.342531457422723 -0.3400000000000001 -0.3378777699425307 -0.3400000000000001 -0.3433840074571267 -0.3450000000000001 -0.3480133883864797 -0.355 -0.3624168681937795 -0.365 -0.3649692196667316 -0.3700000000000001 -0.3845723987274638 -0.4050000000000001 -0.4257035556787263 -0.4450000000000001 -0.4639199062320997 -0.48 -0.4896303383702365 -0.495 -0.5043668946289916 -0.52 -0.5333982763917747 -0.535 -0.5248546421566025 -0.505 -0.4702424442305774 -0.415 -0.3471730584142769 -0.2800000000000001 -0.2135581674623312 -0.135 -0.03961321114044192 0.06499999999999997 0.1754927088824991 0.2999999999999999 0.4398134162626015 0.58 0.7044184890924773 0.8100000000000001 0.8944246944535007 0.945 0.9510312201722928 0.9199999999999999 0.863474257421149 0.7749999999999999 0.6358640555486943 0.4449999999999999 0.228306833876328 0.01999999999999998 -0.1577308747805504 -0.2950000000000001 -0.3895555163338973 -0.4450000000000001 -0.4695371974317008 -0.47 -0.4523048891712039 -0.425 -0.3989974539018303 -0.3799999999999999 -0.3676110091637895 -0.3599999999999999 -0.357672234481573 -0.3599999999999999 -0.3647694564372145 -0.3699999999999999 -0.3755300680703193 -0.3799999999999999 -0.3816069635644402 -0.3799999999999999 -0.3773817878963125 -0.3749999999999999 -0.3727760319070916 -0.37 -0.3671466890072861 -0.365 -0.3654762260193796 -0.3699999999999999 -0.3779038372119232 -0.385 -0.3875853199518078 -0.3850000000000001 -0.3799436999582043 -0.3750000000000001 -0.371801346876491 -0.3700000000000002 -0.3691402932262929 -0.3700000000000002 -0.3753817163746814 -0.3850000000000001 -0.3935870053940038 -0.3950000000000001 -0.3902060179163521 -0.3850000000000001 -0.3835389857601728 -0.3850000000000001 -0.3878814322211748 -0.3900000000000001 -0.3888909478598858 -0.3850000000000001 -0.3855099680534457 -0.3950000000000001 -0.4069375057281672 -0.41 -0.4044919073598377 -0.4000000000000001 -0.3993805218006601 -0.3950000000000001 -0.3851867840975271 -0.3800000000000001 -0.3859349275803376 -0.3950000000000001 -0.3972555243070663 -0.3950000000000001 -0.3958693582547759 -0.4000000000000001 -0.4017237494473155 -0.4000000000000001 -0.3974711181631417 -0.3950000000000001 -0.3919547325628571 -0.3900000000000001 -0.3899401174894785 -0.3900000000000001 -0.3905397989375826 -0.3950000000000001 -0.4025207803555244 -0.4050000000000001 -0.3986938721301212 -0.3900000000000001 -0.3863122750794767 -0.3850000000000001 -0.3807546737294408 -0.3750000000000001 -0.3731726465066675 -0.3750000000000001 -0.3772940569114179 -0.3800000000000001 -0.3850977668568943 -0.3900000000000001 -0.3903576222743828 -0.3850000000000001 -0.3770026983878447 -0.3700000000000001 -0.3676374959105877 -0.3700000000000001 -0.3722319885672744 -0.3700000000000001 -0.3684975655192014 -0.3750000000000001 -0.3849622090413808 -0.3850000000000001 -0.3748126507107383 -0.3700000000000001 -0.3793317466161754 -0.3900000000000001 -0.3872868999873596 -0.3750000000000001 -0.3678492114628714 -0.3700000000000001 -0.3753494747119764 -0.3800000000000001 -0.3853176641566163 -0.3900000000000001 -0.3913977780877289 -0.3900000000000001 -0.3882035666926024 -0.3850000000000001 -0.3797385754221883 -0.3750000000000001 -0.3737159676803165 -0.3750000000000001 -0.3785036810592344 -0.3850000000000001 -0.3923750851020672 -0.3950000000000001 -0.3925609992303707 -0.3900000000000001 -0.388951657921769 -0.3850000000000001 -0.3783149663081861 -0.3750000000000001 -0.3773415725826439 -0.3800000000000001 -0.3812950525218347 -0.3850000000000001 -0.3903903698387906 -0.3900000000000001 -0.3837059776147208 -0.3800000000000001 -0.381476826467227 -0.3800000000000001 -0.3734717009529091 -0.3700000000000001 -0.3719618811982748 -0.3700000000000001 -0.3632085590901662 -0.3650000000000001 -0.3799355930228292 -0.3900000000000001 -0.3810776889724254 -0.365 -0.3606622577571324 -0.3650000000000001 -0.3642706911986578 -0.3600000000000001 -0.3642921978982176 -0.3750000000000001 -0.3800202806430275 -0.3800000000000001 -0.3871413095729613 -0.4000000000000001 -0.4026856007574094 -0.3900000000000001 -0.376885486818612 -0.3750000000000001 -0.3779057026498232 -0.3750000000000001 -0.3693426184488846 -0.3700000000000001 -0.377645582829478 -0.3850000000000001 -0.3885769815648155 -0.3900000000000001 -0.3907351792655052 -0.3900000000000001 -0.3890469788624082 -0.3900000000000001 -0.3919508916735974 -0.3900000000000001 -0.3825039000774142 -0.3750000000000001 -0.3757433263717379 -0.3850000000000001 -0.3941899240028623 -0.3950000000000001 -0.3883496481167713 -0.3800000000000001 -0.3736189005379083 -0.3700000000000001 -0.3708402580501431 -0.3750000000000001 -0.3770932232041339 -0.3750000000000001 -0.3770639903313429 -0.3900000000000001 -0.4048631287373506 -0.4050000000000001 -0.3897348862298776 -0.3750000000000001 -0.3708960413707094 -0.3700000000000001 -0.3646217187014238 -0.3600000000000001 -0.3645186876625217 -0.3750000000000001 -0.3828154152148364 -0.3850000000000001 -0.3838773905967962 -0.3800000000000001 -0.3744416804311734 -0.3700000000000001 -0.3666851860333872 -0.3600000000000001 -0.350466089394091 -0.3450000000000001 -0.3458884198573479 -0.345 -0.3374950418518947 -0.3300000000000001 -0.3293726254394384 -0.3300000000000001 -0.3241384275178243 -0.3150000000000001 -0.3108756012083561 -0.3100000000000001 -0.3048015149824178 -0.2950000000000001 -0.2876811861411591 -0.285 -0.2841075492334778 -0.285 -0.290125231745008 -0.295 -0.2915930672678924 -0.2800000000000001 -0.2704878469946129 -0.2700000000000001 -0.2755084910629435 -0.2800000000000001 -0.2811140447599587 -0.2800000000000001 -0.2789295703853183 -0.2800000000000001 -0.2845260582655302 -0.29 -0.2923904060050401 -0.29 -0.2850840540465195 -0.2800000000000001 -0.2763130448483098 -0.2750000000000001 -0.2767430647076309 -0.2800000000000001 -0.2829221540692066 -0.285 -0.2873942094467387 -0.29 -0.2914974081872416 -0.29 -0.2854289000435519 -0.2800000000000001 -0.2777801538596754 -0.2800000000000001 -0.2836112678975811 -0.285 -0.2859180503267476 -0.29 -0.2964589356051691 -0.3 -0.2987143247787032 -0.295 -0.2906628562935279 -0.285 -0.2801944562656926 -0.2800000000000001 -0.2835286422503002 -0.285 -0.2836661610967636 -0.285 -0.2910536872499473 -0.295 -0.2916937544371048 -0.285 -0.2813670483162694 -0.2800000000000001 -0.2774961789899936 -0.2750000000000001 -0.2761874657650991 -0.2800000000000001 -0.2840911508022637 -0.29 -0.3001663798678543 -0.3100000000000001 -0.3120617758277098 -0.305 -0.2946174622871652 -0.285 -0.2765575807104727 -0.2700000000000001 -0.2680009760744453 -0.2700000000000001 -0.2727488850065504 -0.2750000000000001 -0.2791633751700741 -0.285 -0.288185087485012 -0.285 -0.2774459890223681 -0.2700000000000001 -0.2658500563687378 -0.2650000000000001 -0.2656469882143699 -0.2650000000000001 -0.2633986071521516 -0.2650000000000001 -0.2725769508708184 -0.2800000000000001 -0.2777743802355299 -0.2650000000000001 -0.2517527288923423 -0.245 -0.2411671208861493 -0.235 -0.2308054642934936 -0.235 -0.2445385288979236 -0.2500000000000001 -0.2498982228306318 -0.2500000000000001 -0.2509653748040687 -0.2450000000000001 -0.2298161064762078 -0.2150000000000001 -0.2116991185504153 -0.22 -0.232924784372864 -0.245 -0.2536981290589682 -0.2550000000000001 -0.2461912873377363 -0.23 -0.2141612660392799 -0.205 -0.2045924818721011 -0.21 -0.2162044063388487 -0.22 -0.223640329238717 -0.23 -0.2371144835652349 -0.24 -0.2393140970526227 -0.24 -0.2432724481517682 -0.2450000000000001 -0.245397617518241 -0.25 -0.2603560655785595 -0.27 -0.2762239822650099 -0.285 -0.3004261522790023 -0.315 -0.3206563041884445 -0.32 -0.3202875015760497 -0.32 -0.3148848945826198 -0.31 -0.3157138261854535 -0.33 -0.3400140499106757 -0.34 -0.3390026865619757 -0.345 -0.354362183543437 -0.36 -0.3625457110634632 -0.365 -0.3651735642233922 -0.36 -0.3530348414791937 -0.35 -0.3512303076022093 -0.355 -0.3627818144507111 -0.3750000000000001 -0.3846219816615029 -0.3850000000000001 -0.3791130355320181 -0.3750000000000001 -0.3733527195759152 -0.3700000000000001 -0.3657652812459684 -0.365 -0.366274573304803 -0.365 -0.3641988629641199 -0.3700000000000001 -0.3790060410956104 -0.3800000000000001 -0.370840822860643 -0.36 -0.3535386441684866 -0.35 -0.3499393431704904 -0.355 -0.3594109595074094 -0.355 -0.3474671593635768 -0.35 -0.3612296609978189 -0.365 -0.3569275690944852 -0.3500000000000001 -0.3510330743393921 -0.3500000000000001 -0.3425190107608397 -0.3400000000000002 -0.348409114306476 -0.3550000000000001 -0.3515244811558749 -0.3500000000000001 -0.361675385565638 -0.3750000000000001 -0.374314740802712 -0.365 -0.3642163608191273 -0.3750000000000001 -0.3882544482760352 -0.4000000000000001 -0.4136401810191827 -0.43 -0.4495691676285637 -0.475 -0.5028657167357424 -0.52 -0.5213584587910987 -0.52 -0.5306616040824822 -0.55 -0.5652653379393053 -0.57 -0.5630509179803139 -0.54 -0.4990726287610268 -0.4450000000000001 -0.381114788673811 -0.305 -0.2208138890271439 -0.1400000000000001 -0.06350645156407075 0.02499999999999998 0.1359074191396612 0.26 0.3847475941240838 0.51 0.6326156062691553 0.7349999999999999 0.8031063952115911 0.8449999999999999 0.8720518367921574 0.8749999999999999 0.8322116631148601 0.7349999999999999 0.5882351861201804 0.3999999999999999 0.1854552403991489 -0.025 -0.2018383481416441 -0.3350000000000001 -0.4280482798932479 -0.4800000000000001 -0.4898934985483769 -0.47 -0.4412288294714501 -0.415 -0.3925556876062234 -0.3749999999999999 -0.3658116357798099 -0.3649999999999999 -0.3716872350620523 -0.385 -0.3984487653416555 -0.3999999999999999 -0.3888779847054777 -0.3799999999999999 -0.3838681186787977 -0.39 -0.3851351491083534 -0.3749999999999999 -0.375005924407363 -0.385 -0.3927797465535732 -0.395 -0.3992614009273718 -0.405 -0.4024499092608269 -0.39 -0.3798916817788273 -0.38 -0.3845047689827898 -0.3850000000000001 -0.3832929223211202 -0.3850000000000002 -0.3903732201911144 -0.3950000000000002 -0.3976813650636435 -0.4000000000000001 -0.403019954026447 -0.4050000000000001 -0.4042394511488769 -0.4000000000000001 -0.3943105144842434 -0.3900000000000001 -0.3889656566948061 -0.3900000000000001 -0.3920619050539463 -0.3950000000000001 -0.3986583021762151 -0.4000000000000001 -0.3966975040367105 -0.3900000000000001 -0.3849915169908845 -0.3850000000000001 -0.3885237316827826 -0.3900000000000001 -0.3869756912474563 -0.3850000000000001 -0.3929700442157271 -0.41 -0.422537117115061 -0.4200000000000001 -0.4091459642911517 -0.4050000000000001 -0.4093281981257981 -0.4100000000000001 -0.4005645856349534 -0.3900000000000001 -0.3874910787405908 -0.3900000000000001 -0.3904090507941457 -0.3900000000000001 -0.393864361713767 -0.4000000000000001 -0.4024769731825726 -0.4000000000000001 -0.3958027834651985 -0.3900000000000001 -0.3819700870284354 -0.3750000000000001 -0.3744476190019064 -0.3800000000000001 -0.3877594212125221 -0.3950000000000001 -0.4002796769570649 -0.4000000000000001 -0.394198150935252 -0.3900000000000001 -0.3938414142387059 -0.4000000000000001 -0.3983823153622837 -0.3900000000000001 -0.3871814790314407 -0.3950000000000001 -0.4053393692616336 -0.4100000000000001 -0.4119178770169683 -0.4150000000000001 -0.4146736875057654 -0.4050000000000001 -0.3916537822533355 -0.3850000000000001 -0.3857557587753828 -0.3850000000000001 -0.3804548100651864 -0.3800000000000001 -0.3889418204405956 -0.4000000000000001 -0.4037061126121539 -0.4000000000000001 -0.396191648774051 -0.3950000000000001 -0.3936875786535075 -0.3900000000000001 -0.3852557320065532 -0.3800000000000001 -0.37526561770613 -0.3750000000000001 -0.3831903759979536 -0.3950000000000001 -0.4001508723709204 -0.3950000000000001 -0.3876231746276873 -0.3850000000000001 -0.3843821090309255 -0.3800000000000001 -0.3747337577670125 -0.3750000000000001 -0.3805508566313308 -0.3850000000000001 -0.386924281084975 -0.3900000000000001 -0.3955845167590245 -0.4000000000000001 -0.4014141220283526 -0.4000000000000001 -0.3947179425275576 -0.3850000000000001 -0.3775472627884097 -0.3800000000000001 -0.3896700838721567 -0.3950000000000001 -0.3924142265026298 -0.3900000000000001 -0.3942698229035276 -0.4000000000000001 -0.4000980234508341 -0.3950000000000001 -0.3895717665852362 -0.3850000000000001 -0.3813179342963685 -0.3800000000000001 -0.3819404861802455 -0.3850000000000001 -0.3888735263036086 -0.3950000000000001 -0.4020306610779912 -0.4050000000000001 -0.4031806348829416 -0.4000000000000001 -0.3964823667029402 -0.3900000000000001 -0.3827409482286105 -0.3800000000000001 -0.3811103638538404 -0.3800000000000001 -0.3785568548903275 -0.3850000000000001 -0.3982284017231568 -0.4050000000000001 -0.4003693777936074 -0.3950000000000001 -0.3973567225808999 -0.4000000000000001 -0.3954043796393932 -0.3900000000000001 -0.3929989027789239 -0.4000000000000001 -0.4029589817269948 -0.4050000000000001 -0.4138443519467778 -0.425 -0.4275413517700672 -0.4200000000000001 -0.4109545386224354 -0.4050000000000001 -0.4012695831510908 -0.4000000000000001 -0.4024739792047289 -0.4050000000000001 -0.4045864533760707 -0.4050000000000001 -0.4104395085544986 -0.415 -0.4106628660265606 -0.4000000000000001 -0.392700095125167 -0.3900000000000001 -0.3859303680262214 -0.3800000000000001 -0.3792179112441137 -0.3850000000000001 -0.3913062313345662 -0.3950000000000001 -0.3998055560422438 -0.4050000000000001 -0.4028225100657257 -0.3900000000000001 -0.375833600861359 -0.3700000000000001 -0.3707713493990297 -0.3700000000000001 -0.3675346500698208 -0.3700000000000001 -0.3787810873300275 -0.3850000000000001 -0.3811606177423612 -0.3700000000000001 -0.36029753715041 -0.3550000000000001 -0.3506925613146789 -0.3450000000000001 -0.3409266123157043 -0.3400000000000001 -0.3389177946746773 -0.3350000000000001 -0.3333739159758484 -0.3400000000000001 -0.3511866349158016 -0.355 -0.3469315696682731 -0.3350000000000001 -0.3283621322498285 -0.3250000000000001 -0.3186577843706567 -0.3100000000000001 -0.3053240909134515 -0.3050000000000001 -0.3047767138869814 -0.305 -0.3109013854510311 -0.3200000000000001 -0.3223348496505329 -0.3150000000000001 -0.3085651334022851 -0.3100000000000001 -0.3116937766063516 -0.305 -0.2982730970740672 -0.305 -0.3214699074536285 -0.3300000000000001 -0.3263704613423537 -0.3250000000000001 -0.3351698667644437 -0.345 -0.3402728172703077 -0.3250000000000001 -0.3148673643931185 -0.3150000000000001 -0.3175425880255072 -0.3150000000000001 -0.3090967604832516 -0.305 -0.3058204435656038 -0.3100000000000001 -0.312891656890375 -0.3100000000000001 -0.3035074765258335 -0.3 -0.3021882281252475 -0.305 -0.3049053631306313 -0.305 -0.3092732326996075 -0.3150000000000001 -0.3182952251041505 -0.3200000000000001 -0.3229834289531675 -0.3250000000000001 -0.3222347469348164 -0.3150000000000001 -0.3080474534033047 -0.305 -0.3076645915377783 -0.3150000000000001 -0.3225748423293912 -0.3250000000000001 -0.3237473778903556 -0.3250000000000001 -0.3296525614114006 -0.3300000000000001 -0.3227317647926236 -0.3150000000000001 -0.3138674864635383 -0.3150000000000001 -0.312331652617971 -0.3100000000000001 -0.316695124401364 -0.3300000000000001 -0.3392930594321075 -0.3400000000000001 -0.3373784837735061 -0.3350000000000001 -0.3320072607875447 -0.3300000000000001 -0.3345973913891616 -0.345 -0.3531445480838848 -0.355 -0.3571890029620632 -0.365 -0.3726370419563346 -0.3700000000000001 -0.3575019222328724 -0.345 -0.3398797189519674 -0.3400000000000001 -0.3404912839871709 -0.3400000000000001 -0.3409549217186827 -0.345 -0.3521354731980769 -0.36 -0.3651566575358715 -0.365 -0.3617464436400465 -0.36 -0.3610860161459966 -0.36 -0.3531346371036925 -0.345 -0.3450746025758742 -0.355 -0.3651913992699981 -0.365 -0.3561718964511722 -0.35 -0.3534230298572431 -0.36 -0.3592962741296839 -0.35 -0.3413473474187438 -0.3400000000000001 -0.3431470796700593 -0.345 -0.3472619121650537 -0.355 -0.3660761204307472 -0.3700000000000001 -0.3619519829731582 -0.35 -0.3458944389514993 -0.35 -0.3532143809061304 -0.35 -0.3452769160587932 -0.345 -0.3481737282510301 -0.35 -0.3510605717379711 -0.355 -0.3604575183085694 -0.36 -0.3519549366488723 -0.345 -0.3476603095835008 -0.355 -0.3559247658533735 -0.35 -0.3495038962387746 -0.36 -0.3709610600805774 -0.3700000000000001 -0.3607142011612378 -0.355 -0.3555828506564673 -0.355 -0.3512524474888022 -0.35 -0.3531693570137062 -0.355 -0.354706692828663 -0.36 -0.3748749252298506 -0.3900000000000001 -0.393829064121048 -0.3850000000000001 -0.3713089093365115 -0.36 -0.3558543728109477 -0.36 -0.3675277440521739 -0.3700000000000001 -0.3676318675238293 -0.3700000000000001 -0.381168041892732 -0.3900000000000001 -0.3860117912048113 -0.3750000000000001 -0.3699766268402955 -0.3700000000000001 -0.3638900107119142 -0.35 -0.3400533358340979 -0.3400000000000001 -0.3433831756025507 -0.345 -0.3499315222910533 -0.36 -0.365845198584819 -0.36 -0.3509026071330516 -0.35 -0.3538928899809432 -0.3500000000000001 -0.338943341488374 -0.3350000000000001 -0.3455173293200958 -0.36 -0.3662795032434798 -0.365 -0.3641641376286917 -0.365 -0.363689004889674 -0.36 -0.3583859548460281 -0.3600000000000001 -0.3625538183096469 -0.365 -0.369199408478188 -0.3750000000000001 -0.3806263990339107 -0.3850000000000001 -0.3876088033533999 -0.3850000000000001 -0.3755426051206122 -0.365 -0.3629953352161301 -0.3700000000000001 -0.3764291107202243 -0.3750000000000001 -0.3703318420763758 -0.3700000000000001 -0.3737823008585932 -0.3750000000000001 -0.371162229789408 -0.365 -0.3594436715248397 -0.355 -0.3532114978764192 -0.355 -0.3583406123893216 -0.36 -0.3612862006464211 -0.365 -0.3696693562256397 -0.3700000000000001 -0.3654110876983644 -0.36 -0.3557898947917454 -0.35 -0.3430650562796571 -0.3400000000000001 -0.3427121493309714 -0.3450000000000001 -0.3425620686977389 -0.3400000000000001 -0.3437252788993599 -0.35 -0.3504443270120227 -0.345 -0.3432970476351226 -0.35 -0.3585836058406918 -0.36 -0.3546366652569105 -0.35 -0.3521636999080648 -0.36 -0.3678984827207789 -0.3700000000000001 -0.3657135340927156 -0.36 -0.3584868274916098 -0.36 -0.3592138704383379 -0.355 -0.3537805524364386 -0.36 -0.3696158596901863 -0.3750000000000001 -0.3753662515458213 -0.3750000000000001 -0.3748184251366386 -0.3700000000000001 -0.3594625560145436 -0.35 -0.349144201881521 -0.355 -0.3597801464540166 -0.36 -0.3603464944698088 -0.365 -0.3717454288173165 -0.3750000000000001 -0.3735106236450605 -0.3700000000000001 -0.3671852163509191 -0.365 -0.3628240506928353 -0.36 -0.3569144507957837 -0.355 -0.3563834728767121 -0.36 -0.3620869570616509 -0.36 -0.3553741923873345 -0.35 -0.344347812808904 -0.3400000000000001 -0.3406127925541179 -0.345 -0.3470322850459708 -0.345 -0.3464381105092846 -0.355 -0.3622540973920661 -0.36 -0.3556203175172149 -0.36 -0.3680294201443085 -0.365 -0.3519861119714071 -0.345 -0.3500480103556686 -0.355 -0.3523027895381727 -0.35 -0.3550406425678992 -0.36 -0.3580596860666613 -0.355 -0.3576103149471417 -0.36 -0.3546594869469288 -0.345 -0.3386369774792492 -0.3350000000000001 -0.331371233351112 -0.3300000000000001 -0.3319056042672718 -0.3300000000000001 -0.3203984667854715 -0.3100000000000001 -0.3061359325156973 -0.305 -0.3017506552935744 -0.3 -0.3033646778759373 -0.305 -0.2997119671462552 -0.295 -0.299332439598614 -0.305 -0.2993900243333268 -0.285 -0.2758234021444499 -0.2750000000000001 -0.2730996062251738 -0.2650000000000001 -0.2572530040210063 -0.2550000000000001 -0.2554837799029461 -0.2550000000000001 -0.255822369356293 -0.2600000000000001 -0.2647349252412211 -0.2650000000000001 -0.2604336319722302 -0.2550000000000001 -0.2532255601367692 -0.2550000000000001 -0.2574231309339275 -0.2600000000000001 -0.2672664864742867 -0.2800000000000001 -0.2902851388978216 -0.29 -0.2835169399780779 -0.2800000000000001 -0.278372446046195 -0.2700000000000001 -0.2578105994573212 -0.2550000000000001 -0.2647799099336523 -0.2750000000000001 -0.2802780385548795 -0.29 -0.3081971770805475 -0.3200000000000001 -0.3137803290907465 -0.3 -0.2950160158133892 -0.295 -0.2861820450684425 -0.2700000000000001 -0.2616938194423408 -0.2650000000000001 -0.2695127039167607 -0.2700000000000001 -0.2740406040526013 -0.285 -0.2955607264118111 -0.3 -0.303420876920858 -0.3100000000000001 -0.3154205635854628 -0.3150000000000001 -0.3139105617989129 -0.3200000000000001 -0.3339811188666863 -0.35 -0.3630457230733249 -0.3700000000000001 -0.3695818616049363 -0.365 -0.3627948038625224 -0.365 -0.3665761637560274 -0.365 -0.3650207959970829 -0.3700000000000001 -0.373573246137898 -0.3700000000000001 -0.3654561923497188 -0.3700000000000001 -0.3795873175434945 -0.3800000000000001 -0.3686298553290732 -0.36 -0.3649192123853172 -0.3750000000000001 -0.377431403669737 -0.3750000000000001 -0.3816638010135329 -0.4000000000000001 -0.4168572630236967 -0.42 -0.4125262206911162 -0.4050000000000001 -0.4022538788499032 -0.4000000000000001 -0.3939011639684804 -0.3850000000000001 -0.3789678691807181 -0.3800000000000001 -0.3883179790293319 -0.4000000000000001 -0.4103103764537543 -0.4150000000000001 -0.4125716802885812 -0.4050000000000001 -0.3978581492522448 -0.3950000000000001 -0.395384904908502 -0.3950000000000001 -0.3937284173661613 -0.3950000000000001 -0.4010458696537096 -0.4100000000000001 -0.4200695033710078 -0.43 -0.4373659032391135 -0.4400000000000001 -0.4430297280954425 -0.4550000000000001 -0.4752758542737357 -0.4900000000000001 -0.4899941336377756 -0.485 -0.4937189094844947 -0.52 -0.550111997765335 -0.57 -0.5777194663121402 -0.575 -0.5588501284955885 -0.525 -0.4763137036980237 -0.4200000000000001 -0.3620160562403566 -0.3050000000000001 -0.2494901903317979 -0.1900000000000001 -0.1160151249882549 -0.02000000000000001 0.09468596214367052 0.22 0.3511550315689657 0.4849999999999999 0.6109500324072897 0.715 0.79130410378089 0.8449999999999999 0.8785752698128296 0.8849999999999999 0.8555107279412434 0.7899999999999999 0.6915138231634183 0.5599999999999999 0.3984822047251447 0.225 0.0646021482940216 -0.07000000000000002 -0.1844389527588255 -0.2850000000000001 -0.3672172700312927 -0.425 -0.4651392478429299 -0.5 -0.5316560896431871 -0.55 -0.5491586609087591 -0.5349999999999999 -0.5175160809472789 -0.4999999999999999 -0.4819586797985713 -0.4649999999999999 -0.4537973681378629 -0.4499999999999998 -0.4506887225123983 -0.45 -0.4444659783598884 -0.4349999999999999 -0.4261524440581203 -0.4199999999999999 -0.4150811230980331 -0.41 -0.4076919820055064 -0.4099999999999999 -0.4138412490014042 -0.415 -0.4157840079393964 -0.42 -0.4252207380837529 -0.425 -0.4207183557634201 -0.4200000000000002 -0.4253333538205662 -0.4300000000000002 -0.4301895447674151 -0.4300000000000002 -0.4340469171367677 -0.4400000000000002 -0.445189037853486 -0.4500000000000001 -0.4534490832457967 -0.4500000000000001 -0.4394710024240521 -0.4300000000000001 -0.4282841206208704 -0.4300000000000001 -0.4296647706882653 -0.4300000000000001 -0.4364543962015935 -0.4450000000000001 -0.4478877672669928 -0.4450000000000001 -0.4423964740381057 -0.4400000000000001 -0.4334217945853451 -0.4250000000000001 -0.4235474430071059 -0.4300000000000001 -0.4343238060633192 -0.4300000000000001 -0.4235268591367452 -0.4250000000000001 -0.4347478775921756 -0.4450000000000001 -0.4488506184802156 -0.4450000000000001 -0.4365260476869211 -0.4300000000000001 -0.4303591137052627 -0.4350000000000001 -0.4367550825548666 -0.4350000000000001 -0.4371232183233721 -0.4450000000000001 -0.4498517147021325 -0.4450000000000001 -0.4372859031824873 -0.4350000000000001 -0.4350382474037774 -0.4300000000000001 -0.4239494921628969 -0.4250000000000001 -0.4302911401584855 -0.4300000000000001 -0.4264523935645226 -0.4300000000000001 -0.4393067034994267 -0.4400000000000001 -0.4289021954306251 -0.4200000000000001 -0.4232830980775128 -0.4300000000000001 -0.4295749392047985 -0.4250000000000001 -0.4251382094264687 -0.4300000000000001 -0.4353884423176609 -0.4400000000000001 -0.4428802581566676 -0.4400000000000001 -0.4331438981087747 -0.4300000000000001 -0.4320274066847312 -0.4300000000000001 -0.4210193692875331 -0.4150000000000001 -0.4189918780533102 -0.4250000000000001 -0.426330569712856 -0.4300000000000001 -0.4429512288286334 -0.4550000000000001 -0.4539067619863807 -0.4450000000000001 -0.442427347920659 -0.4450000000000001 -0.4410538608646348 -0.4300000000000001 -0.4246884786023937 -0.4300000000000001 -0.437579391642944 -0.4400000000000001 -0.4399088331152515 -0.4400000000000001 -0.4386119071912687 -0.4350000000000001 -0.4323693127268506 -0.4300000000000001 -0.4239541580836127 -0.4150000000000001 -0.4109264055319769 -0.4150000000000001 -0.4218827152220806 -0.4250000000000001 -0.4250689130658155 -0.4250000000000001 -0.4243714571729199 -0.4200000000000001 -0.412315670371471 -0.4050000000000001 -0.4023044204308681 -0.4050000000000001 -0.4107572549052178 -0.4150000000000001 -0.4157034999744618 -0.4150000000000001 -0.4177906527685298 -0.4250000000000001 -0.4316634365181082 -0.4300000000000001 -0.4185369562494638 -0.4050000000000001 -0.4002392707439518 -0.4050000000000001 -0.4091780792081468 -0.4050000000000001 -0.3996249867581329 -0.4050000000000001 -0.4201412684292411 -0.4300000000000001 -0.4258495940342962 -0.4150000000000001 -0.4093262060228594 -0.4100000000000001 -0.4121805828239264 -0.4150000000000001 -0.4214132940094638 -0.4300000000000001 -0.4375781688521242 -0.4450000000000001 -0.4553281507617001 -0.4650000000000001 -0.4668845756708676 -0.4600000000000001 -0.4522913430153207 -0.4500000000000001 -0.452245956702493 -0.4550000000000001 -0.4575111057758841 -0.4600000000000001 -0.4621790553157941 -0.4650000000000001 -0.4724734675312103 -0.4850000000000001 -0.4955329041659129 -0.4950000000000001 -0.4843515537441142 -0.4750000000000001 -0.4776542681877755 -0.4900000000000001 -0.5002057759272188 -0.5 -0.4945132369563541 -0.4950000000000001 -0.5051180653702226 -0.515 -0.5132067353267906 -0.5 -0.487612003958696 -0.4850000000000001 -0.4889375300850402 -0.4900000000000001 -0.4864356885448558 -0.4850000000000001 -0.491023147471389 -0.5 -0.5038090528004102 -0.5 -0.4939186206572471 -0.4900000000000001 -0.4868742406510729 -0.4800000000000001 -0.4694023680859 -0.4600000000000001 -0.4569196150601069 -0.4600000000000001 -0.4656855610334628 -0.4700000000000001 -0.4705460844014446 -0.4650000000000001 -0.4534226572757157 -0.4400000000000001 -0.4316017698479842 -0.4300000000000001 -0.4299436355747805 -0.4250000000000001 -0.4162905339881952 -0.4100000000000001 -0.4093234138181888 -0.4100000000000001 -0.4069533003824351 -0.4000000000000001 -0.3935860937502085 -0.3900000000000001 -0.3870489723445343 -0.3800000000000001 -0.3678241521725509 -0.3550000000000001 -0.3485459145776677 -0.3500000000000001 -0.354184306753537 -0.3550000000000001 -0.3526741910032191 -0.3500000000000001 -0.3466416122940416 -0.3400000000000001 -0.3327764055201318 -0.3300000000000001 -0.3302282580419428 -0.3250000000000001 -0.3130771810749934 -0.3050000000000001 -0.3096818668066768 -0.3200000000000001 -0.3225206162452373 -0.3150000000000001 -0.3074260160389301 -0.3050000000000001 -0.3034985445910983 -0.3000000000000001 -0.299792590757077 -0.3050000000000001 -0.3086088694160658 -0.3050000000000001 -0.302061034715746 -0.3100000000000001 -0.3245942311307469 -0.3300000000000001 -0.321145860778265 -0.3100000000000001 -0.3090625275490538 -0.3150000000000001 -0.3175577948030436 -0.3150000000000001 -0.3149005059210532 -0.3200000000000001 -0.3249309311486067 -0.3250000000000001 -0.3236063705394639 -0.3250000000000001 -0.3273937077995122 -0.3250000000000001 -0.3174105541373899 -0.3100000000000001 -0.3078929756147831 -0.3100000000000001 -0.3127876300523645 -0.3150000000000001 -0.3189626952192643 -0.3250000000000001 -0.3299031274871239 -0.3300000000000001 -0.3269234271618378 -0.3250000000000001 -0.3256913717663175 -0.3250000000000001 -0.3203946075250643 -0.3150000000000001 -0.3147079191212422 -0.3200000000000001 -0.3263518716312565 -0.3300000000000001 -0.3323886771470539 -0.3350000000000001 -0.3354874319836602 -0.3300000000000001 -0.3208199585871294 -0.3150000000000001 -0.3163543687997706 -0.3200000000000001 -0.3204933779898155 -0.3200000000000001 -0.32525543368718 -0.3350000000000001 -0.3399343209332279 -0.3350000000000001 -0.3273146735895593 -0.3250000000000001 -0.3264760079178667 -0.3250000000000001 -0.3211498752912829 -0.3200000000000001 -0.3212658557461244 -0.3200000000000001 -0.3185782686559329 -0.3250000000000001 -0.3393591004781127 -0.35 -0.3497925009462387 -0.345 -0.3442726323031177 -0.345 -0.3409625842384704 -0.3350000000000001 -0.3361695039567298 -0.345 -0.353117951678887 -0.355 -0.3542337826538578 -0.355 -0.3563627724833245 -0.355 -0.3507461868731783 -0.345 -0.339317925651787 -0.3350000000000001 -0.3336190887394465 -0.3350000000000001 -0.3387863252186506 -0.345 -0.3522659535599926 -0.355 -0.3495164639112893 -0.3400000000000001 -0.3348787081511421 -0.3350000000000001 -0.3341364226771349 -0.3300000000000001 -0.3290621429621858 -0.3350000000000001 -0.3423592811283848 -0.345 -0.346037532577555 -0.35 -0.35341340191167 -0.35 -0.3430301657990219 -0.3400000000000001 -0.3398582223003267 -0.3350000000000001 -0.3277461491759746 -0.3300000000000001 -0.34518575445766 -0.36 -0.362191308734622 -0.355 -0.3487980745061787 -0.345 -0.3397210646721898 -0.3350000000000001 -0.3372672233165145 -0.345 -0.3501316873025946 -0.35 -0.3515205641167844 -0.36 -0.3721219168033794 -0.3800000000000001 -0.3792681426877936 -0.3700000000000001 -0.3563523281984373 -0.345 -0.3416446728128768 -0.345 -0.348972442712152 -0.35 -0.3509581185413434 -0.355 -0.3610179526858973 -0.365 -0.3647838573534978 -0.36 -0.3522251516324039 -0.345 -0.3426394402958776 -0.345 -0.3481443574332719 -0.35 -0.3536225552948233 -0.36 -0.3638952076653189 -0.36 -0.3524939227581592 -0.35 -0.3537009077337513 -0.355 -0.3486063454364819 -0.3400000000000001 -0.3385240580029489 -0.345 -0.3524077583006594 -0.355 -0.3544939487803236 -0.355 -0.3566922898271712 -0.355 -0.3479825984776777 -0.3400000000000001 -0.337444481870045 -0.3400000000000001 -0.342754001535493 -0.345 -0.3523413757113344 -0.365 -0.373521687739545 -0.3700000000000001 -0.3593892777411018 -0.35 -0.3415273815529116 -0.3300000000000001 -0.3205911304989488 -0.3200000000000001 -0.3222643440815959 -0.3150000000000001 -0.300944901867291 -0.295 -0.3008701904388583 -0.305 -0.3000275875174498 -0.295 -0.2976243744323759 -0.3 -0.2940913914116815 -0.285 -0.2800489882843818 -0.2750000000000001 -0.2657298468760775 -0.2600000000000001 -0.2658825052539819 -0.2750000000000001 -0.2741923476852621 -0.2650000000000001 -0.2596256757307041 -0.2600000000000001 -0.257735460325316 -0.2500000000000001 -0.2442474929701531 -0.2450000000000001 -0.2496114133972649 -0.2550000000000001 -0.2610626126945586 -0.2650000000000001 -0.263784689420879 -0.2600000000000001 -0.2592898083594389 -0.2600000000000001 -0.256441303464906 -0.2500000000000001 -0.2500726334283114 -0.2600000000000001 -0.27269112007352 -0.2800000000000001 -0.281575884236792 -0.2800000000000001 -0.2769884321048952 -0.2750000000000001 -0.2781829232033133 -0.285 -0.2875358470731415 -0.28 -0.2665744832972642 -0.2550000000000001 -0.248491409217429 -0.245 -0.2435938417585058 -0.245 -0.2504268610716246 -0.2600000000000001 -0.2730291083829487 -0.285 -0.2906055636388387 -0.29 -0.2913223151552535 -0.3 -0.3120156375510008 -0.3200000000000001 -0.3255304367475026 -0.3350000000000001 -0.3478226751116913 -0.355 -0.3533163200180461 -0.35 -0.351722891223924 -0.355 -0.3548404893452086 -0.355 -0.3624086792089895 -0.375 -0.3836622773094013 -0.3850000000000001 -0.3830597827944767 -0.3800000000000001 -0.3722710804882941 -0.36 -0.3505075874593638 -0.35 -0.3553725770018667 -0.36 -0.362386452686997 -0.365 -0.3682642455863345 -0.3700000000000001 -0.3702346100252632 -0.3700000000000001 -0.3687754853237322 -0.365 -0.3608968860467824 -0.36 -0.3625641055491041 -0.365 -0.3665231391882617 -0.3700000000000001 -0.3773042315858286 -0.3850000000000001 -0.3883530680947195 -0.3850000000000001 -0.3761140449231501 -0.3650000000000001 -0.35789470739216 -0.3600000000000002 -0.3701207292631237 -0.3800000000000001 -0.3840511824205405 -0.3850000000000001 -0.3888641609282956 -0.3950000000000001 -0.3979113570951545 -0.3950000000000001 -0.3896957196508696 -0.3850000000000001 -0.3814441055104497 -0.3800000000000001 -0.3842183854096561 -0.3950000000000001 -0.4094459211669733 -0.425 -0.4433487992120552 -0.4650000000000001 -0.4856975470551065 -0.5 -0.5084169465674854 -0.515 -0.5221112240524023 -0.53 -0.5417995113451399 -0.5600000000000001 -0.5790297918880388 -0.585 -0.5682673608750026 -0.53 -0.476427139428079 -0.41 -0.3335293949444048 -0.2550000000000001 -0.1811770858110203 -0.105 -0.0112677977727095 0.105 0.2313367406503772 0.3549999999999999 0.476311850883253 0.5999999999999999 0.7173551861745655 0.8099999999999999 0.8668690396304989 0.8899999999999999 0.8803637150491281 0.8299999999999998 0.7295053331812731 0.5799999999999998 0.392664243932644 0.185 -0.02172184708187732 -0.205 -0.349572938849067 -0.4500000000000002 -0.5071638221913792 -0.525 -0.5151026335487254 -0.4950000000000001 -0.4780788250401071 -0.465 -0.4508841135978734 -0.4349999999999999 -0.4220754707346939 -0.4149999999999999 -0.4134166197776999 -0.4149999999999999 -0.4168776501058054 -0.4149999999999999 -0.4082934741373439 -0.3999999999999999 -0.3951105907294583 -0.395 -0.3986659384804279 -0.405 -0.4142135564638919 -0.425 -0.4338040825024055 -0.4349999999999999 -0.4267253000769834 -0.415 -0.4104723764650569 -0.415 -0.4190148639899787 -0.4150000000000001 -0.4102491273743781 -0.4150000000000001 -0.4258358164408333 -0.4300000000000002 -0.425356558179976 -0.4200000000000002 -0.4166396094972866 -0.4100000000000001 -0.402862427267028 -0.4050000000000001 -0.4155167098068483 -0.4200000000000001 -0.4140257409367716 -0.4100000000000001 -0.4158008882869917 -0.4200000000000001 -0.4122192478244647 -0.4000000000000001 -0.3954627095947164 -0.3950000000000001 -0.3901345354419441 -0.3850000000000001 -0.389560075320675 -0.4000000000000001 -0.4040918170216484 -0.4000000000000001 -0.397315156111876 -0.4000000000000001 -0.4022754846076655 -0.4000000000000001 -0.396228533051209 -0.3950000000000001 -0.3967208146858175 -0.4000000000000001 -0.4018764672795938 -0.4000000000000001 -0.3971274098442644 -0.4000000000000001 -0.4077645517778848 -0.4100000000000001 -0.4021233827193771 -0.3950000000000001 -0.3998844301596614 -0.4100000000000001 -0.4104705145394215 -0.4000000000000001 -0.3923407823413205 -0.3950000000000001 -0.401832822250865 -0.4050000000000001 -0.4063441044181616 -0.4100000000000001 -0.4145931568632873 -0.4150000000000001 -0.4106064964836693 -0.4050000000000001 -0.4017184942911189 -0.4000000000000001 -0.3976597495521109 -0.3950000000000001 -0.3967711505851335 -0.4050000000000001 -0.4140002645033152 -0.4150000000000001 -0.4088103968630777 -0.4050000000000001 -0.4091834948069549 -0.4150000000000001 -0.4149454533300556 -0.4100000000000001 -0.406275996122338 -0.4050000000000001 -0.4045001395611447 -0.4050000000000001 -0.4077949135960131 -0.4100000000000001 -0.4086631794918578 -0.4050000000000001 -0.4023636375505408 -0.4000000000000001 -0.3966881430481758 -0.3950000000000001 -0.3987174757377487 -0.4050000000000001 -0.407680919721564 -0.4050000000000001 -0.4015484657727445 -0.4000000000000001 -0.3986138811135069 -0.3950000000000001 -0.3911056883791334 -0.3900000000000001 -0.3924238295980635 -0.3950000000000001 -0.3942015220456622 -0.3900000000000001 -0.3883186262213742 -0.3950000000000001 -0.4087497074978895 -0.4200000000000001 -0.4214648421746373 -0.4150000000000001 -0.4083516892901116 -0.4050000000000001 -0.4030117739575986 -0.4000000000000001 -0.3979462160341432 -0.4000000000000001 -0.4068932953258479 -0.4150000000000001 -0.420048623227217 -0.4200000000000001 -0.4162632327149642 -0.4100000000000001 -0.4020208022330795 -0.3950000000000001 -0.3942235444280106 -0.4000000000000001 -0.4053803113877424 -0.4050000000000001 -0.4052677433643915 -0.4150000000000001 -0.4299402850661344 -0.4350000000000001 -0.4258870036055646 -0.4150000000000001 -0.4133573615442316 -0.4150000000000001 -0.4096783451281216 -0.4000000000000001 -0.3976104403252225 -0.4050000000000001 -0.4143076590058974 -0.4200000000000001 -0.4247899655693579 -0.4300000000000001 -0.4312644609559029 -0.4250000000000001 -0.4156263869126336 -0.4100000000000001 -0.409714568314108 -0.4100000000000001 -0.4076270153639651 -0.4050000000000001 -0.4074071758979431 -0.4150000000000001 -0.4224037586494455 -0.4250000000000001 -0.4247871430077979 -0.4250000000000001 -0.424494096724982 -0.4200000000000001 -0.4136449178711592 -0.4100000000000001 -0.4096626412903839 -0.4100000000000001 -0.4126212746645184 -0.4200000000000001 -0.4282384468260209 -0.4300000000000001 -0.4265838980610829 -0.4250000000000001 -0.4253091440453821 -0.4200000000000001 -0.4097572818996997 -0.4050000000000001 -0.4099216186864981 -0.4150000000000001 -0.4132782378043011 -0.4100000000000001 -0.4109483934299174 -0.4100000000000001 -0.399977231657851 -0.3850000000000001 -0.3746705970766261 -0.3700000000000001 -0.3658804749896731 -0.3600000000000001 -0.3543481289999231 -0.3500000000000001 -0.3482399522811158 -0.3500000000000001 -0.3525460837537283 -0.3500000000000001 -0.342385056189052 -0.3350000000000001 -0.3291128916688556 -0.3200000000000001 -0.3091245542935311 -0.3050000000000001 -0.3099820332957205 -0.3150000000000001 -0.3148674240461878 -0.3150000000000001 -0.3191099377681799 -0.3200000000000001 -0.3129825543708715 -0.3050000000000001 -0.3037702807447913 -0.3050000000000001 -0.3016395904230922 -0.2950000000000001 -0.2908871547662721 -0.2900000000000001 -0.2913533737401383 -0.295 -0.2981442453933921 -0.295 -0.2877458422853748 -0.285 -0.2874706871504261 -0.285 -0.2754665887915722 -0.2700000000000001 -0.2747342138877996 -0.2800000000000001 -0.2791251240329524 -0.2800000000000001 -0.2888071518954605 -0.295 -0.2891565721854059 -0.2800000000000001 -0.2803252555685712 -0.285 -0.2822418739806034 -0.2750000000000001 -0.2758968167835811 -0.285 -0.2922328887081391 -0.295 -0.2995575745814582 -0.305 -0.3037405381626869 -0.295 -0.2873272144397975 -0.285 -0.2850390319595434 -0.285 -0.2866568070390683 -0.29 -0.294115688246731 -0.3 -0.3074788501559997 -0.3100000000000001 -0.3035309070903106 -0.295 -0.2946928093353269 -0.3 -0.2994660642711265 -0.29 -0.2822383951886763 -0.285 -0.2954666705051723 -0.305 -0.3097863762249263 -0.3100000000000001 -0.3063946662360688 -0.3 -0.2948852371281105 -0.295 -0.3002218627232114 -0.305 -0.3044870140122077 -0.3 -0.2988345925949556 -0.305 -0.3144200879744219 -0.3200000000000001 -0.3208942626399688 -0.3200000000000001 -0.3171918656549839 -0.3100000000000001 -0.3019647654306755 -0.3 -0.3048461514923071 -0.3100000000000001 -0.3134546061718879 -0.3200000000000001 -0.3313358499061146 -0.3400000000000001 -0.3391546341243283 -0.3300000000000001 -0.3186598941017946 -0.3100000000000001 -0.3084138861172063 -0.3150000000000001 -0.3234606330303741 -0.3250000000000001 -0.3218812901112535 -0.3250000000000001 -0.3367836298972324 -0.345 -0.3407209400322827 -0.3300000000000001 -0.3230240513506906 -0.3200000000000001 -0.318036996135302 -0.3200000000000001 -0.3280832058565014 -0.3350000000000001 -0.3350316108271078 -0.3350000000000001 -0.3438839999110932 -0.355 -0.3540741526577286 -0.3400000000000001 -0.3261347583491936 -0.3200000000000001 -0.3172819034767427 -0.3150000000000001 -0.3187551128307571 -0.3300000000000001 -0.339659194475491 -0.3400000000000001 -0.3368802541869022 -0.3400000000000001 -0.3480552775572042 -0.35 -0.3413992636461717 -0.3300000000000001 -0.325967113843181 -0.3300000000000001 -0.3359920038976468 -0.3400000000000001 -0.3441206840976196 -0.35 -0.3549676188800346 -0.355 -0.3506394365587335 -0.345 -0.3397795841257881 -0.3350000000000001 -0.3328238023285272 -0.3350000000000001 -0.3389879642666673 -0.3400000000000001 -0.3387766745898873 -0.3400000000000001 -0.3440855606355595 -0.345 -0.3402493466305863 -0.3350000000000001 -0.3343325349782456 -0.3350000000000001 -0.3315451810250676 -0.3250000000000001 -0.3219392850061701 -0.3250000000000001 -0.3307978974634821 -0.3350000000000001 -0.3374939899790815 -0.3400000000000001 -0.3421545881735573 -0.3400000000000001 -0.331306940881441 -0.3200000000000001 -0.3138998095571022 -0.3150000000000001 -0.3181351062240692 -0.3200000000000001 -0.3250507379138962 -0.3350000000000001 -0.3411459957093474 -0.3350000000000001 -0.3235225867952133 -0.3200000000000001 -0.3245066915223504 -0.3250000000000001 -0.3186422178739923 -0.3150000000000001 -0.3182020956875965 -0.3200000000000001 -0.317423569162821 -0.3200000000000001 -0.3329645509874884 -0.345 -0.3444807153869876 -0.3350000000000001 -0.3265443417281761 -0.3200000000000001 -0.3130997524598862 -0.3100000000000001 -0.3145424283626697 -0.3200000000000001 -0.3198730967712618 -0.3200000000000001 -0.3288656233281914 -0.3400000000000001 -0.3403074894890769 -0.3300000000000001 -0.3217924692883115 -0.3200000000000001 -0.3171763526353489 -0.3100000000000001 -0.3062610355563242 -0.3100000000000001 -0.3138681690348045 -0.3100000000000001 -0.3015747102062633 -0.295 -0.2896421294822725 -0.2800000000000001 -0.2664241033202416 -0.2550000000000001 -0.2502155355864237 -0.2500000000000001 -0.2503882940278617 -0.2500000000000001 -0.2510940554725892 -0.2550000000000001 -0.2596655107836533 -0.2600000000000001 -0.2529781243499833 -0.24 -0.2269288597359992 -0.2200000000000001 -0.2223443259593019 -0.2300000000000001 -0.234453778927568 -0.2300000000000001 -0.2207041277200406 -0.2150000000000001 -0.216220304783462 -0.2200000000000001 -0.2227223320409237 -0.2250000000000001 -0.2280794896144532 -0.2300000000000001 -0.2299678735917972 -0.2300000000000001 -0.2320332535465104 -0.235 -0.2388527306359536 -0.2450000000000001 -0.2523455771076651 -0.255 -0.2496113835364506 -0.24 -0.2339505444926519 -0.235 -0.2407997492554191 -0.245 -0.2427264727934763 -0.235 -0.2294401818103405 -0.23 -0.2300789377173511 -0.2200000000000001 -0.2033935015818794 -0.1950000000000001 -0.2031468220974976 -0.2200000000000001 -0.2347582412284525 -0.2450000000000001 -0.2535687658993048 -0.26 -0.2642550122455379 -0.2700000000000001 -0.2798788904245659 -0.29 -0.2962966023193734 -0.3 -0.3034609264933776 -0.305 -0.3039295592677741 -0.305 -0.311614427882777 -0.32 -0.3252192428546545 -0.33 -0.3390776910582428 -0.35 -0.3545905501347772 -0.35 -0.3412782901281347 -0.335 -0.3335897261693924 -0.3350000000000001 -0.3359281398614785 -0.3350000000000001 -0.3353927194754416 -0.3400000000000001 -0.3466555830929255 -0.35 -0.349938612658643 -0.35 -0.3498156760252699 -0.345 -0.3374949976887608 -0.3350000000000001 -0.3397079771627118 -0.345 -0.3483555462052769 -0.355 -0.3656752171241693 -0.3700000000000001 -0.3619119361401389 -0.3500000000000001 -0.3452415983963098 -0.3450000000000001 -0.3412261793711709 -0.3350000000000001 -0.333275118426417 -0.3350000000000001 -0.3348372999802865 -0.3350000000000001 -0.3426911306653836 -0.355 -0.3605171080467396 -0.355 -0.3471564730837778 -0.345 -0.348197672388423 -0.355 -0.3696709752506468 -0.3950000000000001 -0.4251077929747808 -0.4500000000000001 -0.4668684259526363 -0.48 -0.4931584293226081 -0.505 -0.5146798684946462 -0.525 -0.5376559690766819 -0.545 -0.5342155032888611 -0.5 -0.4505106427718696 -0.3950000000000001 -0.332189764400054 -0.2550000000000001 -0.1649689610940563 -0.07000000000000003 0.02973219065437335 0.1449999999999999 0.2804532106103492 0.4249999999999999 0.5621737677210522 0.6850000000000001 0.7917081675985695 0.875 0.9219924413741686 0.9249999999999999 0.8829437147697839 0.7949999999999999 0.6570835065921168 0.4699999999999999 0.2477986467789394 0.01999999999999998 -0.1788151214568914 -0.3250000000000001 -0.4175763362542325 -0.4700000000000001 -0.4924448917761119 -0.485 -0.4517661060202395 -0.4100000000000001 -0.3795289836110161 -0.3649999999999999 -0.358631262507247 -0.3549999999999999 -0.3568424504178448 -0.3649999999999999 -0.3743716412135926 -0.3799999999999999 -0.3829830371264825 -0.3849999999999999 -0.3846138324165996 -0.3799999999999999 -0.3738993671723001 -0.3699999999999999 -0.3692607568140978 -0.37 -0.3718565321925317 -0.375 -0.3795158660556108 -0.385 -0.3911574260182892 -0.395 -0.3927875554390755 -0.385 -0.3789170835166547 -0.3800000000000001 -0.3848718483426464 -0.3850000000000002 -0.3791665864659727 -0.3750000000000002 -0.3794665062564513 -0.3900000000000001 -0.3997076533172422 -0.4050000000000001 -0.4068625728075037 -0.4050000000000001 -0.3986270728117014 -0.3900000000000001 -0.3848877396357417 -0.3850000000000001 -0.3863635791855961 -0.3850000000000001 -0.3843115490846468 -0.3900000000000001 -0.4015449276472705 -0.41 -0.4086306191523327 -0.4000000000000001 -0.3926326526573502 -0.3900000000000001 -0.3886035001216973 -0.3850000000000001 -0.3822446230443112 -0.3850000000000001 -0.3915816689215304 -0.3950000000000001 -0.3925797342092726 -0.3900000000000001 -0.3921551627668953 -0.3950000000000001 -0.3905670375841877 -0.3800000000000001 -0.3730313614122324 -0.3750000000000001 -0.3796662986785647 -0.3800000000000001 -0.3793081276445014 -0.3850000000000001 -0.3954240672149599 -0.4000000000000001 -0.3942849918939315 -0.3850000000000001 -0.3805305702170605 -0.3800000000000001 -0.3783801048131608 -0.3750000000000001 -0.3747102525888228 -0.3800000000000001 -0.3884187613874173 -0.3950000000000001 -0.3971789951443145 -0.3950000000000001 -0.3904927517040879 -0.3850000000000001 -0.3795685012560078 -0.3750000000000001 -0.3722836226363548 -0.3700000000000001 -0.3667086410361016 -0.3650000000000001 -0.371242915600385 -0.3850000000000001 -0.395913138030039 -0.3950000000000001 -0.3876908426637052 -0.3850000000000001 -0.3873427569444822 -0.3850000000000001 -0.3761699460177556 -0.3700000000000001 -0.371916246654475 -0.3750000000000001 -0.3731273787852584 -0.3700000000000001 -0.3714691886702935 -0.3750000000000001 -0.3760224678449341 -0.3750000000000001 -0.3739640077050488 -0.3700000000000001 -0.3618107132605459 -0.3550000000000001 -0.3565047012773869 -0.3650000000000001 -0.374363187118549 -0.3800000000000001 -0.3802979407629705 -0.3750000000000001 -0.3691621775361281 -0.3700000000000001 -0.3771160664757396 -0.3800000000000001 -0.3733079569557688 -0.3650000000000001 -0.3648507273341665 -0.3700000000000001 -0.3730108237794185 -0.3750000000000001 -0.3819296636107668 -0.3900000000000001 -0.3894929293894013 -0.3800000000000001 -0.3729523100183683 -0.3750000000000001 -0.3803113821348786 -0.3800000000000001 -0.3744150503799192 -0.3700000000000001 -0.3708872550653772 -0.3750000000000001 -0.3785754910206618 -0.3800000000000001 -0.381551248877904 -0.3850000000000001 -0.3879147269386576 -0.3850000000000001 -0.3766341619947689 -0.3700000000000001 -0.3707257774471606 -0.3750000000000001 -0.3764000699718259 -0.3750000000000001 -0.3760961388707794 -0.3800000000000001 -0.3819758140244272 -0.3800000000000001 -0.3783953552083689 -0.3800000000000001 -0.3819567966655892 -0.3800000000000001 -0.375819384349016 -0.3750000000000001 -0.38085008322646 -0.3900000000000001 -0.3960558532197781 -0.3950000000000001 -0.3894111334937029 -0.3850000000000001 -0.3847034423733149 -0.3850000000000001 -0.381505574038398 -0.3750000000000001 -0.3716869743692053 -0.3750000000000001 -0.3815688627371487 -0.3850000000000001 -0.3845742261078754 -0.3850000000000001 -0.3887426694379773 -0.3900000000000001 -0.3826029453740815 -0.3700000000000001 -0.3630917122100529 -0.365 -0.3675741180476015 -0.365 -0.3648690402333393 -0.3750000000000001 -0.3872880114121121 -0.3850000000000001 -0.3670525344139499 -0.35 -0.3453643198088268 -0.3450000000000001 -0.3372545790355647 -0.3250000000000001 -0.3202083630783915 -0.3250000000000001 -0.3305048573511105 -0.3300000000000001 -0.3265040777439014 -0.3250000000000001 -0.3257705289365904 -0.3250000000000001 -0.3207585898897298 -0.3150000000000001 -0.3125317322647091 -0.3150000000000001 -0.3180150478736652 -0.3150000000000001 -0.3065972074361941 -0.3 -0.2994888991769775 -0.3 -0.2950885596976661 -0.285 -0.2755595067468237 -0.2700000000000001 -0.2674131616550866 -0.2650000000000001 -0.2618526607564243 -0.2600000000000001 -0.2641687607284242 -0.2750000000000001 -0.2851198010655899 -0.285 -0.275271297869025 -0.2650000000000001 -0.2594545633777223 -0.2550000000000001 -0.2500629606228755 -0.2500000000000001 -0.2585907460420229 -0.2700000000000001 -0.2771415347893403 -0.2800000000000001 -0.2826179074778493 -0.285 -0.2856382080994876 -0.285 -0.2838083130387523 -0.2800000000000001 -0.2740146629100421 -0.2700000000000001 -0.2699824465345635 -0.2700000000000001 -0.2684815625346963 -0.2700000000000001 -0.2775916758676878 -0.285 -0.2852649776020769 -0.2800000000000001 -0.2761082502631097 -0.2750000000000001 -0.2734961497639922 -0.2700000000000001 -0.2665534927809802 -0.2650000000000001 -0.2674341831581898 -0.2750000000000001 -0.2848423216765471 -0.29 -0.2883227617273647 -0.285 -0.2848746397645429 -0.285 -0.281240211419818 -0.2750000000000001 -0.270854328752979 -0.2700000000000001 -0.2726926125348499 -0.2800000000000001 -0.2900214815872709 -0.295 -0.2901825648024934 -0.2800000000000001 -0.2726465799713065 -0.2700000000000001 -0.2695318191172563 -0.2700000000000001 -0.2721258967662361 -0.2750000000000001 -0.2786634506496141 -0.285 -0.2939016071795816 -0.3 -0.2995333946286831 -0.295 -0.2914182645747974 -0.29 -0.2909151136072515 -0.295 -0.3001725797232714 -0.3 -0.2936760925770057 -0.29 -0.2961103006971412 -0.305 -0.304689933768555 -0.295 -0.2879129281463363 -0.29 -0.2952021818266536 -0.295 -0.290648724484301 -0.29 -0.2977467053553013 -0.3100000000000001 -0.3189467858339726 -0.3200000000000001 -0.3165694349732369 -0.3150000000000001 -0.3164442083570997 -0.3150000000000001 -0.307671583258622 -0.3 -0.299475029803825 -0.305 -0.3105927441061048 -0.3150000000000001 -0.3220720307960921 -0.3300000000000001 -0.3304640297675464 -0.3200000000000001 -0.3078258358625114 -0.305 -0.3110177532014521 -0.3150000000000001 -0.3110572918423734 -0.305 -0.3061804622671018 -0.3150000000000001 -0.3236299110645853 -0.3250000000000001 -0.3192189398996474 -0.3100000000000001 -0.3009636098584111 -0.295 -0.2950042880593291 -0.3 -0.3046709324943618 -0.305 -0.3047346253582041 -0.3100000000000001 -0.319700263316643 -0.3250000000000001 -0.3215004744458863 -0.3150000000000001 -0.3133404631896426 -0.3150000000000001 -0.312707914646722 -0.305 -0.3000608170117309 -0.305 -0.3167365101395474 -0.3250000000000001 -0.3245896863920308 -0.3200000000000001 -0.3185520251749481 -0.3200000000000001 -0.3179684712801258 -0.3100000000000001 -0.3031706853767843 -0.305 -0.313559658890545 -0.3200000000000001 -0.3208059238109787 -0.3200000000000001 -0.3207649324911504 -0.3200000000000001 -0.3153685294035217 -0.3100000000000001 -0.3074658696772417 -0.305 -0.2985854839990881 -0.29 -0.2850366253801762 -0.285 -0.2870108754951831 -0.29 -0.29628317488568 -0.305 -0.3108970926859234 -0.3100000000000001 -0.3047430370550581 -0.3 -0.2984609307970059 -0.3 -0.3043312576350506 -0.3100000000000001 -0.3142155610900929 -0.3150000000000001 -0.3144313079919799 -0.3150000000000001 -0.3150532815915984 -0.3100000000000001 -0.3008655495984572 -0.295 -0.2967598173417324 -0.3 -0.297926088556685 -0.295 -0.3015503190226317 -0.3150000000000001 -0.3201387475979213 -0.3100000000000001 -0.2964417110211733 -0.29 -0.2831930224314048 -0.2650000000000001 -0.2445204505196768 -0.24 -0.2502657682843918 -0.2550000000000001 -0.2466651169967083 -0.24 -0.2453374948231773 -0.2500000000000001 -0.2404443763594444 -0.2250000000000001 -0.220465527546437 -0.2250000000000001 -0.22409202870347 -0.2150000000000001 -0.2091184543018413 -0.21 -0.2084920246673566 -0.2000000000000001 -0.1933493437523779 -0.1950000000000001 -0.198557812027791 -0.1950000000000001 -0.1864126497840862 -0.18 -0.1772879899011919 -0.175 -0.1744145342304706 -0.18 -0.1921662907723746 -0.205 -0.2130878868314638 -0.2150000000000001 -0.2129560221201164 -0.21 -0.2090218329044532 -0.21 -0.2108135149062588 -0.21 -0.2092569852952079 -0.21 -0.2120062906273011 -0.215 -0.2201518918464031 -0.2250000000000001 -0.2228772962674216 -0.21 -0.1926937307364635 -0.18 -0.1737483405428931 -0.1700000000000001 -0.1711240827172601 -0.1850000000000001 -0.2123540566080941 -0.24 -0.2544068425868146 -0.255 -0.2525040100397988 -0.255 -0.2624844149393121 -0.27 -0.2740540040494727 -0.275 -0.2774307922461891 -0.285 -0.294898915708635 -0.3 -0.2991511103818096 -0.3 -0.3074217704069609 -0.315 -0.3134595668233551 -0.305 -0.2994914841040345 -0.3 -0.2995591047697531 -0.295 -0.2931308927655584 -0.3 -0.3104808885751666 -0.3150000000000001 -0.3126633433677162 -0.3100000000000001 -0.3104519248839729 -0.3100000000000001 -0.3056030746885656 -0.3 -0.2980873118987767 -0.3 -0.3027849374769463 -0.305 -0.3086919213558971 -0.3150000000000001 -0.3218057175175192 -0.3250000000000001 -0.3234551599015707 -0.3200000000000001 -0.3187343475959324 -0.3200000000000001 -0.3209936629746538 -0.3200000000000001 -0.3200969360089314 -0.3250000000000001 -0.3336859155136177 -0.3400000000000001 -0.3398932904379723 -0.3350000000000001 -0.3296727035390418 -0.3250000000000001 -0.3199030964164732 -0.3150000000000001 -0.314161310029276 -0.3200000000000001 -0.3314997831693949 -0.345 -0.3580501895143749 -0.3700000000000001 -0.3819198199560102 -0.3950000000000001 -0.4099371697155846 -0.425 -0.4371798111931864 -0.445 -0.4521827156902236 -0.465 -0.4861400600510995 -0.51 -0.5269957533381385 -0.53 -0.5166002060357381 -0.485 -0.4345945081136651 -0.3700000000000001 -0.3014414754310344 -0.2350000000000001 -0.167141127386845 -0.09000000000000004 -3.838276620233773e-05 0.105 0.2298878387364565 0.3749999999999999 0.5247326236979724 0.655 0.7523814292394199 0.82 0.8604621799739436 0.865 0.8228210222228922 0.7349999999999999 0.6092957674843252 0.45 0.2611584896372284 0.06 -0.1249076006587113 -0.2700000000000001 -0.3695599741224439 -0.4300000000000001 -0.4587521470694354 -0.4600000000000001 -0.4410017669644073 -0.415 -0.3954491167401014 -0.385 -0.3765105022082436 -0.3649999999999999 -0.3559097976683083 -0.3549999999999999 -0.3577504486209148 -0.3549999999999999 -0.3478875995392148 -0.345 -0.3481655762076755 -0.3499999999999999 -0.3484924012621152 -0.3499999999999999 -0.3566869605413244 -0.36 -0.3542515623146674 -0.345 -0.3403704285665626 -0.34 -0.3402076337315573 -0.34 -0.3389865019427381 -0.335 -0.3311943491233795 -0.3350000000000001 -0.3466807479967062 -0.3550000000000001 -0.3525543660037729 -0.3450000000000001 -0.3411303844442711 -0.3400000000000002 -0.3374563339867525 -0.3350000000000001 -0.336436739323986 -0.3400000000000001 -0.3437818322727319 -0.35 -0.3592974469361332 -0.365 -0.3632872370416901 -0.36 -0.3620309644748232 -0.365 -0.3607382154347588 -0.35 -0.3426348416952751 -0.345 -0.3550719239215257 -0.365 -0.36719105003284 -0.36 -0.3512995592983082 -0.35 -0.3543004842722422 -0.355 -0.3508409668410399 -0.35 -0.354108040319865 -0.355 -0.3503801836754848 -0.35 -0.357223738532302 -0.36 -0.349242920753342 -0.3350000000000001 -0.3312471187117654 -0.3350000000000001 -0.3346304138246918 -0.3300000000000001 -0.331239826437462 -0.3400000000000001 -0.3479847802455228 -0.35 -0.3497094436230865 -0.35 -0.3491816059944057 -0.345 -0.3390885562345817 -0.3350000000000001 -0.3368586988543802 -0.345 -0.3534942437474712 -0.355 -0.3522731673626737 -0.355 -0.3646973148538296 -0.3700000000000001 -0.3642543815682581 -0.355 -0.3513145064913331 -0.35 -0.3461414090356551 -0.345 -0.3534805733049505 -0.365 -0.3684515978284172 -0.365 -0.3651456548771371 -0.3700000000000001 -0.3710490999197433 -0.365 -0.3584918435018782 -0.355 -0.3509951228067113 -0.345 -0.3423494568455775 -0.345 -0.3474673067309706 -0.345 -0.3411097249429126 -0.3400000000000001 -0.3395540731474824 -0.3350000000000001 -0.3281204300712125 -0.3250000000000001 -0.3284762335655128 -0.3350000000000001 -0.340795936359257 -0.345 -0.3483559077592637 -0.35 -0.3498958619856048 -0.35 -0.3523496711680041 -0.355 -0.3554410982942786 -0.355 -0.3572850211200153 -0.36 -0.3571725458565831 -0.35 -0.3495022371885316 -0.36 -0.3696332884449989 -0.365 -0.3515973385891374 -0.345 -0.3471859494586632 -0.345 -0.3348641603684262 -0.3300000000000001 -0.3388880543654089 -0.35 -0.3503522454363293 -0.345 -0.3470199461320804 -0.355 -0.3570060035317082 -0.35 -0.3428641420899374 -0.3400000000000001 -0.3376018441090472 -0.3350000000000001 -0.3387543666857789 -0.35 -0.3605494032605106 -0.365 -0.3695967596637456 -0.3800000000000001 -0.3892130052018428 -0.3850000000000001 -0.3686465549075494 -0.355 -0.354376867650077 -0.36 -0.3600609551085306 -0.355 -0.3568261193288966 -0.3700000000000001 -0.3836364903635626 -0.3850000000000001 -0.3764659544860379 -0.3700000000000001 -0.3703780646339828 -0.3700000000000001 -0.3621494311128806 -0.35 -0.3426528024296913 -0.345 -0.3549470390071872 -0.365 -0.3684401195136817 -0.365 -0.3612066746000579 -0.36 -0.3560861261285359 -0.345 -0.33347111387501 -0.3300000000000001 -0.3317538539105639 -0.3300000000000001 -0.3267107476714772 -0.3300000000000001 -0.336958232822854 -0.3350000000000001 -0.3234395045852884 -0.3150000000000001 -0.3143205684549505 -0.3100000000000001 