# Created by Octave 4.2.2, Wed Sep 11 20:09:14 2019 -03 <mauricio@mauricio-PC>
# name: ecg
# type: matrix
# rows: 1
# columns: 43142
 0.1923076923076923 0.1923076923076923 0.1923076923076923 0.1923076923076923 0.1923076923076923 0.2 0.2 0.1923076923076923 0.2 0.2 0.1923076923076923 0.2 0.2 0.2 0.2076923076923077 0.2 0.2076923076923077 0.2 0.1923076923076923 0.1923076923076923 0.2 0.2 0.2 0.2076923076923077 0.2153846153846154 0.2153846153846154 0.2076923076923077 0.1923076923076923 0.2 0.2230769230769231 0.2 0.2076923076923077 0.2153846153846154 0.2153846153846154 0.2153846153846154 0.2153846153846154 0.2076923076923077 0.2076923076923077 0.2076923076923077 0.2076923076923077 0.2 0.2076923076923077 0.2 0.1923076923076923 0.2076923076923077 0.2076923076923077 0.2076923076923077 0.2076923076923077 0.2076923076923077 0.2076923076923077 0.2153846153846154 0.2076923076923077 0.2076923076923077 0.2076923076923077 0.2076923076923077 0.2076923076923077 0.2 0.2076923076923077 0.2076923076923077 0.2076923076923077 0.2076923076923077 0.2 0.2076923076923077 0.2076923076923077 0.1923076923076923 0.1846153846153846 0.1769230769230769 0.1769230769230769 0.1846153846153846 0.2 0.1923076923076923 0.1846153846153846 0.1923076923076923 0.1923076923076923 0.1846153846153846 0.2 0.1923076923076923 0.1846153846153846 0.1923076923076923 0.1923076923076923 0.2 0.2 0.2076923076923077 0.2153846153846154 0.2153846153846154 0.2230769230769231 0.2307692307692308 0.2384615384615385 0.2307692307692308 0.2230769230769231 0.2230769230769231 0.2153846153846154 0.2076923076923077 0.2076923076923077 0.2 0.1923076923076923 0.2 0.2076923076923077 0.1923076923076923 0.1923076923076923 0.2 0.2 0.2076923076923077 0.2 0.2 0.1923076923076923 0.2 0.1846153846153846 0.1846153846153846 0.1923076923076923 0.1923076923076923 0.1923076923076923 0.1923076923076923 0.1846153846153846 0.1846153846153846 0.1923076923076923 0.2 0.2 0.1923076923076923 0.1923076923076923 0.1923076923076923 0.1923076923076923 0.1923076923076923 0.1923076923076923 0.1769230769230769 0.1923076923076923 0.1769230769230769 0.1846153846153846 0.1846153846153846 0.1769230769230769 0.1846153846153846 0.1846153846153846 0.1769230769230769 0.1923076923076923 0.1692307692307692 0.1769230769230769 0.1923076923076923 0.1769230769230769 0.1692307692307692 0.1769230769230769 0.1846153846153846 0.1692307692307692 0.1692307692307692 0.1769230769230769 0.1769230769230769 0.1692307692307692 0.1692307692307692 0.1692307692307692 0.1692307692307692 0.1692307692307692 0.1692307692307692 0.1615384615384615 0.1692307692307692 0.1769230769230769 0.1846153846153846 0.2 0.1923076923076923 0.1923076923076923 0.1923076923076923 0.1923076923076923 0.1923076923076923 0.2 0.2 0.2 0.1923076923076923 0.2 0.2076923076923077 0.2153846153846154 0.2153846153846154 0.2153846153846154 0.2153846153846154 0.2076923076923077 0.2153846153846154 0.2153846153846154 0.2153846153846154 0.2 0.2153846153846154 0.2230769230769231 0.2230769230769231 0.2230769230769231 0.2307692307692308 0.2153846153846154 0.2153846153846154 0.2230769230769231 0.2153846153846154 0.2 0.1846153846153846 0.1769230769230769 0.1769230769230769 0.1846153846153846 0.1846153846153846 0.2 0.2076923076923077 0.2076923076923077 0.2 0.2153846153846154 0.2153846153846154 0.2153846153846154 0.2230769230769231 0.2230769230769231 0.2307692307692308 0.2384615384615385 0.2384615384615385 0.2384615384615385 0.2384615384615385 0.2384615384615385 0.2384615384615385 0.2384615384615385 0.2461538461538462 0.2615384615384616 0.2538461538461538 0.2461538461538462 0.2384615384615385 0.2461538461538462 0.2384615384615385 0.2153846153846154 0.2307692307692308 0.2307692307692308 0.2307692307692308 0.2307692307692308 0.2307692307692308 0.2153846153846154 0.2076923076923077 0.2230769230769231 0.2153846153846154 0.1923076923076923 0.1846153846153846 0.1615384615384615 0.1307692307692308 0.1230769230769231 0.1153846153846154 0.09230769230769231 0.06153846153846154 0.03076923076923077 0.007692307692307693 -0.03076923076923077 -0.06153846153846154 -0.07692307692307693 -0.1076923076923077 -0.1461538461538462 -0.1692307692307692 -0.2076923076923077 -0.2538461538461538 -0.2923076923076923 -0.3307692307692308 -0.3538461538461539 -0.3769230769230769 -0.3692307692307693 -0.3692307692307693 -0.3769230769230769 -0.3923076923076923 -0.4 -0.3923076923076923 -0.3923076923076923 -0.3615384615384615 -0.3461538461538461 -0.3384615384615385 -0.3230769230769231 -0.2846153846153846 -0.2769230769230769 -0.2538461538461538 -0.2230769230769231 -0.1923076923076923 -0.1769230769230769 -0.1461538461538462 -0.1230769230769231 -0.09230769230769231 -0.07692307692307693 -0.09230769230769231 -0.09230769230769231 -0.09230769230769231 -0.09230769230769231 -0.07692307692307693 -0.06923076923076923 -0.06923076923076923 -0.07692307692307693 -0.06923076923076923 -0.06923076923076923 -0.06153846153846154 -0.06153846153846154 -0.06153846153846154 -0.04615384615384616 -0.04615384615384616 -0.03846153846153846 -0.03076923076923077 -0.02307692307692308 -0.01538461538461539 0.007692307692307693 0 0.007692307692307693 0.007692307692307693 -0.007692307692307693 0.007692307692307693 0.03076923076923077 0.02307692307692308 0.01538461538461539 0.02307692307692308 0.03846153846153846 0.04615384615384616 0.05384615384615385 0.06153846153846154 0.06923076923076923 0.08461538461538462 0.1076923076923077 0.1230769230769231 0.1307692307692308 0.1461538461538462 0.1538461538461539 0.1615384615384615 0.1769230769230769 0.1846153846153846 0.1846153846153846 0.1923076923076923 0.1692307692307692 0.1769230769230769 0.1769230769230769 0.1846153846153846 0.1846153846153846 0.1923076923076923 0.1846153846153846 0.2 0.1923076923076923 0.1846153846153846 0.2076923076923077 0.2076923076923077 0.2 0.2 0.2153846153846154 0.2076923076923077 0.2153846153846154 0.2230769230769231 0.2307692307692308 0.2230769230769231 0.2230769230769231 0.2307692307692308 0.2307692307692308 0.2230769230769231 0.2153846153846154 0.2230769230769231 0.2230769230769231 0.2230769230769231 0.2230769230769231 0.2230769230769231 0.2230769230769231 0.2384615384615385 0.2307692307692308 0.2230769230769231 0.2384615384615385 0.2384615384615385 0.2384615384615385 0.2461538461538462 0.2384615384615385 0.2384615384615385 0.2384615384615385 0.2384615384615385 0.2384615384615385 0.2461538461538462 0.2538461538461538 0.2538461538461538 0.2461538461538462 0.2461538461538462 0.2538461538461538 0.2461538461538462 0.2538461538461538 0.2615384615384616 0.2692307692307692 0.2615384615384616 0.2692307692307692 0.2692307692307692 0.2692307692307692 0.2769230769230769 0.2769230769230769 0.2692307692307692 0.2615384615384616 0.2615384615384616 0.2692307692307692 0.2615384615384616 0.2692307692307692 0.2769230769230769 0.2769230769230769 0.2769230769230769 0.2923076923076923 0.2923076923076923 0.2923076923076923 0.2923076923076923 0.3 0.3 0.3 0.3076923076923077 0.3076923076923077 0.3153846153846154 0.3230769230769231 0.3153846153846154 0.3230769230769231 0.3384615384615385 0.3307692307692308 0.3384615384615385 0.3384615384615385 0.3538461538461539 0.3461538461538461 0.3384615384615385 0.3461538461538461 0.3461538461538461 0.3384615384615385 0.3384615384615385 0.3461538461538461 0.3615384615384615 0.3615384615384615 0.3538461538461539 0.3615384615384615 0.3692307692307693 0.3846153846153846 0.3923076923076923 0.4153846153846154 0.4230769230769231 0.4307692307692308 0.4538461538461538 0.4692307692307692 0.4692307692307692 0.4846153846153846 0.4923076923076923 0.4923076923076923 0.5076923076923077 0.5307692307692308 0.5153846153846153 0.5230769230769231 0.5461538461538461 0.5692307692307692 0.5846153846153846 0.5923076923076923 0.6 0.6230769230769231 0.6384615384615384 0.6461538461538462 0.6538461538461539 0.6538461538461539 0.6692307692307692 0.6692307692307692 0.6846153846153846 0.6846153846153846 0.6846153846153846 0.6923076923076923 0.7 0.7 0.7 0.6923076923076923 0.7153846153846154 0.7076923076923077 0.7 0.7153846153846154 0.7153846153846154 0.7076923076923077 0.7076923076923077 0.7153846153846154 0.7153846153846154 0.7230769230769231 0.7153846153846154 0.7 0.6923076923076923 0.7076923076923077 0.7 0.6923076923076923 0.6846153846153846 0.676923076923077 0.6615384615384615 0.6692307692307692 0.6615384615384615 0.6538461538461539 0.6461538461538462 0.6384615384615384 0.6230769230769231 0.6230769230769231 0.6 0.5923076923076923 0.5846153846153846 0.5692307692307692 0.5692307692307692 0.5692307692307692 0.5692307692307692 0.5692307692307692 0.5615384615384615 0.5538461538461539 0.5538461538461539 0.5461538461538461 0.5538461538461539 0.5538461538461539 0.5384615384615384 0.5153846153846153 0.5230769230769231 0.5307692307692308 0.5076923076923077 0.5 0.5 0.4769230769230769 0.4692307692307692 0.4538461538461538 0.4461538461538462 0.4384615384615385 0.4230769230769231 0.4153846153846154 0.4076923076923077 0.4076923076923077 0.4 0.3846153846153846 0.3769230769230769 0.3769230769230769 0.3615384615384615 0.3538461538461539 0.3461538461538461 0.3384615384615385 0.3307692307692308 0.3384615384615385 0.3384615384615385 0.3307692307692308 0.3153846153846154 0.3153846153846154 0.3230769230769231 0.3153846153846154 0.3153846153846154 0.3076923076923077 0.3 0.2923076923076923 0.3076923076923077 0.3 0.2846153846153846 0.2615384615384616 0.2692307692307692 0.2692307692307692 0.2615384615384616 0.2615384615384616 0.2769230769230769 0.2692307692307692 0.2615384615384616 0.2692307692307692 0.2615384615384616 0.2461538461538462 0.2461538461538462 0.2538461538461538 0.2538461538461538 0.2538461538461538 0.2461538461538462 0.2538461538461538 0.2461538461538462 0.2384615384615385 0.2307692307692308 0.2461538461538462 0.2461538461538462 0.2384615384615385 0.2461538461538462 0.2461538461538462 0.2307692307692308 0.2307692307692308 0.2384615384615385 0.2230769230769231 0.2153846153846154 0.2230769230769231 0.2307692307692308 0.2230769230769231 0.2384615384615385 0.2384615384615385 0.2384615384615385 0.2461538461538462 0.2538461538461538 0.2461538461538462 0.2461538461538462 0.2461538461538462 0.2461538461538462 0.2461538461538462 0.2615384615384616 0.2538461538461538 0.2461538461538462 0.2461538461538462 0.2384615384615385 0.2384615384615385 0.2461538461538462 0.2384615384615385 0.2307692307692308 0.2384615384615385 0.2384615384615385 0.2384615384615385 0.2384615384615385 0.2384615384615385 0.2230769230769231 0.2384615384615385 0.2461538461538462 0.2461538461538462 0.2384615384615385 0.2384615384615385 0.2384615384615385 0.2461538461538462 0.2461538461538462 0.2384615384615385 0.2384615384615385 0.2384615384615385 0.2230769230769231 0.2307692307692308 0.2384615384615385 0.2384615384615385 0.2307692307692308 0.2307692307692308 0.2307692307692308 0.2307692307692308 0.2230769230769231 0.2230769230769231 0.2230769230769231 0.2230769230769231 0.2230769230769231 0.2230769230769231 0.2307692307692308 0.2307692307692308 0.2307692307692308 0.2307692307692308 0.2384615384615385 0.2307692307692308 0.2230769230769231 0.2153846153846154 0.2076923076923077 0.2076923076923077 0.2 0.2076923076923077 0.2076923076923077 0.2076923076923077 0.2076923076923077 0.2076923076923077 0.2076923076923077 0.2153846153846154 0.2153846153846154 0.2153846153846154 0.2076923076923077 0.2153846153846154 0.2 0.1923076923076923 0.1923076923076923 0.1846153846153846 0.1769230769230769 0.1923076923076923 0.1846153846153846 0.1692307692307692 0.1769230769230769 0.1769230769230769 0.1692307692307692 0.1692307692307692 0.1538461538461539 0.1615384615384615 0.1769230769230769 0.1846153846153846 0.1846153846153846 0.1769230769230769 0.1846153846153846 0.1769230769230769 0.1846153846153846 0.1846153846153846 0.1769230769230769 0.1846153846153846 0.1846153846153846 0.1769230769230769 0.1846153846153846 0.1692307692307692 0.1846153846153846 0.1846153846153846 0.1769230769230769 0.1923076923076923 0.1923076923076923 0.1923076923076923 0.1846153846153846 0.1846153846153846 0.1923076923076923 0.1923076923076923 0.1923076923076923 0.2 0.2 0.1923076923076923 0.1846153846153846 0.1923076923076923 0.1846153846153846 0.1923076923076923 0.1846153846153846 0.1923076923076923 0.1923076923076923 0.1846153846153846 0.1769230769230769 0.1692307692307692 0.1692307692307692 0.1692307692307692 0.1615384615384615 0.1615384615384615 0.1769230769230769 0.1769230769230769 0.1769230769230769 0.1923076923076923 0.1923076923076923 0.1769230769230769 0.1846153846153846 0.1846153846153846 0.1846153846153846 0.1923076923076923 0.1846153846153846 0.1923076923076923 0.1846153846153846 0.1846153846153846 0.1923076923076923 0.2 0.2076923076923077 0.2076923076923077 0.2076923076923077 0.2076923076923077 0.2 0.2076923076923077 0.2 0.2 0.2 0.1923076923076923 0.1923076923076923 0.1923076923076923 0.1846153846153846 0.1923076923076923 0.1923076923076923 0.1923076923076923 0.1923076923076923 0.1923076923076923 0.1923076923076923 0.1923076923076923 0.1923076923076923 0.1846153846153846 0.1923076923076923 0.1923076923076923 0.1846153846153846 0.1769230769230769 0.1846153846153846 0.1846153846153846 0.1769230769230769 0.1615384615384615 0.1615384615384615 0.1538461538461539 0.1538461538461539 0.1461538461538462 0.1692307692307692 0.1692307692307692 0.1769230769230769 0.1846153846153846 0.2 0.2 0.2 0.2 0.1923076923076923 0.1923076923076923 0.1923076923076923 0.1846153846153846 0.1846153846153846 0.1846153846153846 0.1923076923076923 0.1923076923076923 0.1923076923076923 0.1846153846153846 0.1846153846153846 0.2 0.2076923076923077 0.2 0.1923076923076923 0.2153846153846154 0.2153846153846154 0.2 0.1923076923076923 0.2 0.2 0.1923076923076923 0.1846153846153846 0.1846153846153846 0.1769230769230769 0.1769230769230769 0.1769230769230769 0.1769230769230769 0.1846153846153846 0.1769230769230769 0.1846153846153846 0.1923076923076923 0.1846153846153846 0.1846153846153846 0.1923076923076923 0.1846153846153846 0.1923076923076923 0.1923076923076923 0.1769230769230769 0.1692307692307692 0.1846153846153846 0.1923076923076923 0.1846153846153846 0.1769230769230769 0.1769230769230769 0.1692307692307692 0.1769230769230769 0.1769230769230769 0.1692307692307692 0.1769230769230769 0.1846153846153846 0.1769230769230769 0.1769230769230769 0.1923076923076923 0.1846153846153846 0.1846153846153846 0.2 0.1923076923076923 0.1846153846153846 0.1923076923076923 0.1846153846153846 0.1846153846153846 0.1846153846153846 0.1846153846153846 0.1769230769230769 0.1769230769230769 0.1769230769230769 0.1692307692307692 0.1692307692307692 0.1615384615384615 0.1769230769230769 0.1769230769230769 0.1692307692307692 0.1846153846153846 0.2 0.1923076923076923 0.2 0.2 0.1923076923076923 0.1923076923076923 0.2 0.2 0.2 0.2076923076923077 0.2 0.2 0.2 0.1846153846153846 0.1846153846153846 0.1769230769230769 0.1769230769230769 0.1769230769230769 0.1769230769230769 0.1846153846153846 0.1846153846153846 0.1769230769230769 0.1846153846153846 0.1923076923076923 0.1846153846153846 0.1923076923076923 0.1846153846153846 0.1846153846153846 0.1769230769230769 0.1923076923076923 0.1923076923076923 0.1846153846153846 0.1769230769230769 0.1769230769230769 0.1692307692307692 0.1769230769230769 0.1769230769230769 0.1692307692307692 0.1692307692307692 0.1538461538461539 0.1692307692307692 0.1846153846153846 0.1846153846153846 0.1769230769230769 0.1846153846153846 0.1846153846153846 0.1846153846153846 0.1846153846153846 0.1846153846153846 0.1769230769230769 0.1923076923076923 0.1769230769230769 0.1769230769230769 0.1769230769230769 0.1846153846153846 0.1769230769230769 0.1846153846153846 0.1923076923076923 0.1846153846153846 0.1846153846153846 0.1846153846153846 0.1846153846153846 0.1846153846153846 0.1923076923076923 0.1846153846153846 0.1692307692307692 0.1846153846153846 0.1923076923076923 0.1769230769230769 0.1846153846153846 0.1923076923076923 0.1846153846153846 0.1846153846153846 0.1846153846153846 0.1846153846153846 0.1769230769230769 0.1846153846153846 0.1846153846153846 0.1923076923076923 0.1846153846153846 0.1846153846153846 0.1846153846153846 0.1846153846153846 0.1769230769230769 0.1692307692307692 0.1769230769230769 0.1769230769230769 0.1692307692307692 0.1769230769230769 0.1923076923076923 0.1846153846153846 0.1692307692307692 0.1692307692307692 0.1846153846153846 0.1846153846153846 0.1769230769230769 0.1846153846153846 0.1846153846153846 0.1769230769230769 0.1692307692307692 0.1692307692307692 0.1615384615384615 0.1615384615384615 0.1615384615384615 0.1538461538461539 0.1538461538461539 0.1692307692307692 0.1692307692307692 0.1769230769230769 0.1769230769230769 0.1769230769230769 0.1846153846153846 0.1769230769230769 0.1846153846153846 0.1846153846153846 0.1769230769230769 0.1846153846153846 0.1846153846153846 0.1846153846153846 0.1923076923076923 0.1923076923076923 0.1846153846153846 0.1769230769230769 0.1769230769230769 0.1769230769230769 0.1692307692307692 0.1692307692307692 0.1692307692307692 0.1692307692307692 0.1692307692307692 0.1692307692307692 0.1692307692307692 0.1615384615384615 0.1615384615384615 0.1692307692307692 0.1769230769230769 0.1692307692307692 0.1769230769230769 0.1846153846153846 0.1769230769230769 0.1846153846153846 0.1923076923076923 0.1846153846153846 0.1769230769230769 0.1769230769230769 0.1692307692307692 0.1692307692307692 0.1692307692307692 0.1769230769230769 0.1846153846153846 0.1692307692307692 0.1846153846153846 0.1769230769230769 0.1923076923076923 0.1846153846153846 0.1846153846153846 0.1923076923076923 0.1923076923076923 0.1846153846153846 0.1923076923076923 0.1923076923076923 0.1923076923076923 0.1923076923076923 0.2 0.2 0.1923076923076923 0.2076923076923077 0.2230769230769231 0.2153846153846154 0.2153846153846154 0.2230769230769231 0.2153846153846154 0.2153846153846154 0.2153846153846154 0.2153846153846154 0.2076923076923077 0.2076923076923077 0.2230769230769231 0.2076923076923077 0.2076923076923077 0.2230769230769231 0.2230769230769231 0.2153846153846154 0.2153846153846154 0.2153846153846154 0.2153846153846154 0.2153846153846154 0.2153846153846154 0.2153846153846154 0.2076923076923077 0.2 0.2076923076923077 0.2076923076923077 0.2076923076923077 0.2153846153846154 0.2076923076923077 0.2 0.2 0.2076923076923077 0.2076923076923077 0.2076923076923077 0.2153846153846154 0.2076923076923077 0.2 0.2 0.1923076923076923 0.1923076923076923 0.2153846153846154 0.2076923076923077 0.1846153846153846 0.2 0.2076923076923077 0.2 0.1923076923076923 0.2 0.1923076923076923 0.1692307692307692 0.1846153846153846 0.1923076923076923 0.1692307692307692 0.1769230769230769 0.1846153846153846 0.1846153846153846 0.1846153846153846 0.1846153846153846 0.1846153846153846 0.1846153846153846 0.1846153846153846 0.1769230769230769 0.1769230769230769 0.1846153846153846 0.1846153846153846 0.1769230769230769 0.1846153846153846 0.1769230769230769 0.1692307692307692 0.1769230769230769 0.1769230769230769 0.1538461538461539 0.1538461538461539 0.1538461538461539 0.1615384615384615 0.1538461538461539 0.1615384615384615 0.1615384615384615 0.1692307692307692 0.1615384615384615 0.1615384615384615 0.1692307692307692 0.1615384615384615 0.1461538461538462 0.1538461538461539 0.1538461538461539 0.1461538461538462 0.1538461538461539 0.1615384615384615 0.1538461538461539 0.1538461538461539 0.1615384615384615 0.1615384615384615 0.1461538461538462 0.1461538461538462 0.1538461538461539 0.1461538461538462 0.1538461538461539 0.1384615384615385 0.1307692307692308 0.1384615384615385 0.1307692307692308 0.1384615384615385 0.1384615384615385 0.1384615384615385 0.1384615384615385 0.1461538461538462 0.1538461538461539 0.1461538461538462 0.1307692307692308 0.1461538461538462 0.1538461538461539 0.1615384615384615 0.1692307692307692 0.1692307692307692 0.1615384615384615 0.1769230769230769 0.1923076923076923 0.2 0.2 0.2 0.2 0.2153846153846154 0.2153846153846154 0.2076923076923077 0.2230769230769231 0.2307692307692308 0.2230769230769231 0.2307692307692308 0.2384615384615385 0.2384615384615385 0.2615384615384616 0.2846153846153846 0.3076923076923077 0.3384615384615385 0.3846153846153846 0.4076923076923077 0.4230769230769231 0.4307692307692308 0.4230769230769231 0.4 0.4 0.3846153846153846 0.3538461538461539 0.3307692307692308 0.3230769230769231 0.3153846153846154 0.2692307692307692 0.2307692307692308 0.2230769230769231 0.1923076923076923 0.1769230769230769 0.1538461538461539 0.1384615384615385 0.1461538461538462 0.1307692307692308 0.1076923076923077 0.08461538461538462 0.07692307692307693 0.06923076923076923 0.08461538461538462 0.09230769230769231 0.09230769230769231 0.1076923076923077 0.1153846153846154 0.1076923076923077 0.1230769230769231 0.1384615384615385 0.1230769230769231 0.1307692307692308 0.1230769230769231 0.1153846153846154 0.1076923076923077 0.1076923076923077 0.1076923076923077 0.1153846153846154 0.1384615384615385 0.1384615384615385 0.1384615384615385 0.1461538461538462 0.1538461538461539 0.1538461538461539 0.1461538461538462 0.1461538461538462 0.1461538461538462 0.1461538461538462 0.1615384615384615 0.1615384615384615 0.1615384615384615 0.1769230769230769 0.1615384615384615 0.1769230769230769 0.1769230769230769 0.1615384615384615 0.1692307692307692 0.1615384615384615 0.1615384615384615 0.1615384615384615 0.1692307692307692 0.1692307692307692 0.1615384615384615 0.1538461538461539 0.1538461538461539 0.1538461538461539 0.1461538461538462 0.1538461538461539 0.1615384615384615 0.1692307692307692 0.1692307692307692 0.1846153846153846 0.1769230769230769 0.1769230769230769 0.1769230769230769 0.1692307692307692 0.1615384615384615 0.1692307692307692 0.1692307692307692 0.1692307692307692 0.1692307692307692 0.1769230769230769 0.1692307692307692 0.1769230769230769 0.1923076923076923 0.1769230769230769 0.1769230769230769 0.1846153846153846 0.1769230769230769 0.1769230769230769 0.1692307692307692 0.1615384615384615 0.1615384615384615 0.1769230769230769 0.1769230769230769 0.1692307692307692 0.1769230769230769 0.1769230769230769 0.1692307692307692 0.1769230769230769 0.1769230769230769 0.1692307692307692 0.1769230769230769 0.1923076923076923 0.1769230769230769 0.1769230769230769 0.1846153846153846 0.1923076923076923 0.1846153846153846 0.1923076923076923 0.1846153846153846 0.1846153846153846 0.1846153846153846 0.1923076923076923 0.1923076923076923 0.1846153846153846 0.1846153846153846 0.1769230769230769 0.1769230769230769 0.1769230769230769 0.1846153846153846 0.1846153846153846 0.1692307692307692 0.1692307692307692 0.1769230769230769 0.1769230769230769 0.1692307692307692 0.1846153846153846 0.1846153846153846 0.1692307692307692 0.1769230769230769 0.1846153846153846 0.1846153846153846 0.1846153846153846 0.1923076923076923 0.1846153846153846 0.1846153846153846 0.2 0.1923076923076923 0.1692307692307692 0.1692307692307692 0.1692307692307692 0.1538461538461539 0.1538461538461539 0.1692307692307692 0.1615384615384615 0.1692307692307692 0.1769230769230769 0.1692307692307692 0.1769230769230769 0.1846153846153846 0.1769230769230769 0.1769230769230769 0.1846153846153846 0.1846153846153846 0.1769230769230769 0.1846153846153846 0.1846153846153846 0.1769230769230769 0.1846153846153846 0.1846153846153846 0.1692307692307692 0.1692307692307692 0.1692307692307692 0.1615384615384615 0.1615384615384615 0.1692307692307692 0.1692307692307692 0.1615384615384615 0.1692307692307692 0.1692307692307692 0.1692307692307692 0.1769230769230769 0.1769230769230769 0.1692307692307692 0.1692307692307692 0.1692307692307692 0.1846153846153846 0.1846153846153846 0.1769230769230769 0.1769230769230769 0.1769230769230769 0.1846153846153846 0.1923076923076923 0.1769230769230769 0.1923076923076923 0.2 0.2 0.2 0.2076923076923077 0.2 0.2 0.2 0.2076923076923077 0.2307692307692308 0.2307692307692308 0.2230769230769231 0.2230769230769231 0.2461538461538462 0.2461538461538462 0.2461538461538462 0.2538461538461538 0.2538461538461538 0.2615384615384616 0.2538461538461538 0.2615384615384616 0.2538461538461538 0.2692307692307692 0.2769230769230769 0.2769230769230769 0.2769230769230769 0.2846153846153846 0.2769230769230769 0.2846153846153846 0.2846153846153846 0.2923076923076923 0.2923076923076923 0.2846153846153846 0.2846153846153846 0.2923076923076923 0.3076923076923077 0.3153846153846154 0.3153846153846154 0.3076923076923077 0.3 0.2923076923076923 0.3 0.3 0.2923076923076923 0.2846153846153846 0.2846153846153846 0.2769230769230769 0.2923076923076923 0.2923076923076923 0.2769230769230769 0.2692307692307692 0.2615384615384616 0.2538461538461538 0.2538461538461538 0.2615384615384616 0.2769230769230769 0.2692307692307692 0.2615384615384616 0.2538461538461538 0.2538461538461538 0.2615384615384616 0.2615384615384616 0.2769230769230769 0.2692307692307692 0.2615384615384616 0.2615384615384616 0.2692307692307692 0.2461538461538462 0.2461538461538462 0.2461538461538462 0.2461538461538462 0.2461538461538462 0.2461538461538462 0.2461538461538462 0.2384615384615385 0.2307692307692308 0.2307692307692308 0.2307692307692308 0.2307692307692308 0.2230769230769231 0.2153846153846154 0.2153846153846154 0.2153846153846154 0.2153846153846154 0.2230769230769231 0.2153846153846154 0.2076923076923077 0.2153846153846154 0.2076923076923077 0.2 0.1923076923076923 0.2 0.1846153846153846 0.1769230769230769 0.1846153846153846 0.1846153846153846 0.1769230769230769 0.1769230769230769 0.1846153846153846 0.1769230769230769 0.1769230769230769 0.1846153846153846 0.1846153846153846 0.1769230769230769 0.1846153846153846 0.2 0.1923076923076923 0.1846153846153846 0.1923076923076923 0.1846153846153846 0.1846153846153846 0.1846153846153846 0.1846153846153846 0.1846153846153846 0.1846153846153846 0.1923076923076923 0.1846153846153846 0.1846153846153846 0.1923076923076923 0.1846153846153846 0.1923076923076923 0.1846153846153846 0.1923076923076923 0.1846153846153846 0.1923076923076923 0.1923076923076923 0.1846153846153846 0.1846153846153846 0.1846153846153846 0.1769230769230769 0.1769230769230769 0.1769230769230769 0.1692307692307692 0.1769230769230769 0.1846153846153846 0.1846153846153846 0.1923076923076923 0.1923076923076923 0.1923076923076923 0.1923076923076923 0.2 0.2 0.1923076923076923 0.1923076923076923 0.2076923076923077 0.2 0.1923076923076923 0.1923076923076923 0.2 0.1923076923076923 0.2 0.2 0.2 0.1923076923076923 0.2 0.1923076923076923 0.1923076923076923 0.2 0.1923076923076923 0.1846153846153846 0.2 0.1923076923076923 0.1846153846153846 0.1923076923076923 0.1923076923076923 0.1846153846153846 0.2 0.1923076923076923 0.1846153846153846 0.1923076923076923 0.1923076923076923 0.1846153846153846 0.1846153846153846 0.1923076923076923 0.1846153846153846 0.1769230769230769 0.1769230769230769 0.1769230769230769 0.1692307692307692 0.1846153846153846 0.1846153846153846 0.1846153846153846 0.1846153846153846 0.1846153846153846 0.1923076923076923 0.2 0.2 0.2 0.2076923076923077 0.2153846153846154 0.2153846153846154 0.2153846153846154 0.2384615384615385 0.2384615384615385 0.2307692307692308 0.2538461538461538 0.2615384615384616 0.2769230769230769 0.3 0.3230769230769231 0.3384615384615385 0.3538461538461539 0.3769230769230769 0.4 0.4153846153846154 0.4384615384615385 0.4461538461538462 0.4615384615384616 0.4615384615384616 0.4692307692307692 0.5 0.5307692307692308 0.5230769230769231 0.5461538461538461 0.5769230769230769 0.5923076923076923 0.5923076923076923 0.6076923076923076 0.6384615384615384 0.6538461538461539 0.676923076923077 0.7076923076923077 0.7307692307692307 0.7461538461538462 0.7615384615384615 0.8 0.8538461538461538 0.8923076923076924 0.9153846153846154 0.9538461538461539 1.007692307692308 1.030769230769231 1.038461538461539 1.015384615384615 0.9846153846153847 0.9769230769230769 0.9615384615384616 0.9384615384615385 0.9153846153846154 0.8923076923076924 0.8461538461538461 0.7769230769230769 0.7384615384615385 0.7 0.6461538461538462 0.6 0.5538461538461539 0.5153846153846153 0.4615384615384616 0.4153846153846154 0.3692307692307693 0.3307692307692308 0.2923076923076923 0.2461538461538462 0.2230769230769231 0.2384615384615385 0.2384615384615385 0.2230769230769231 0.2076923076923077 0.2076923076923077 0.2076923076923077 0.2 0.2 0.1846153846153846 0.1923076923076923 0.1846153846153846 0.1769230769230769 0.1769230769230769 0.1692307692307692 0.1692307692307692 0.1538461538461539 0.1538461538461539 0.1615384615384615 0.1615384615384615 0.1538461538461539 0.1538461538461539 0.1538461538461539 0.1461538461538462 0.1461538461538462 0.1461538461538462 0.1538461538461539 0.1538461538461539 0.1538461538461539 0.1384615384615385 0.1461538461538462 0.1384615384615385 0.1384615384615385 0.1230769230769231 0.1307692307692308 0.1307692307692308 0.1230769230769231 0.1307692307692308 0.1307692307692308 0.1230769230769231 0.1230769230769231 0.1230769230769231 0.1230769230769231 0.1153846153846154 0.1153846153846154 0.1230769230769231 0.1230769230769231 0.1153846153846154 0.1230769230769231 0.1230769230769231 0.1153846153846154 0.1076923076923077 0.1153846153846154 0.1230769230769231 0.1076923076923077 0.1153846153846154 0.1076923076923077 0.1076923076923077 0.09230769230769231 0.1 0.1076923076923077 0.1 0.09230769230769231 0.09230769230769231 0.09230769230769231 0.07692307692307693 0.09230769230769231 0.1 0.1076923076923077 0.1 0.1 0.1 0.1 0.08461538461538462 0.09230769230769231 0.1 0.09230769230769231 0.08461538461538462 0.08461538461538462 0.09230769230769231 0.1 0.1076923076923077 0.1076923076923077 0.1 0.1 0.09230769230769231 0.1 0.09230769230769231 0.07692307692307693 0.08461538461538462 0.08461538461538462 0.07692307692307693 0.06923076923076923 0.07692307692307693 0.06923076923076923 0.06923076923076923 0.07692307692307693 0.06923076923076923 0.06923076923076923 0.06153846153846154 0.06153846153846154 0.06153846153846154 0.06923076923076923 0.06923076923076923 0.06153846153846154 0.06153846153846154 0.05384615384615385 0.06153846153846154 0.06923076923076923 0.05384615384615385 0.04615384615384616 0.05384615384615385 0.06153846153846154 0.05384615384615385 0.04615384615384616 0.05384615384615385 0.05384615384615385 0.05384615384615385 0.04615384615384616 0.03846153846153846 0.04615384615384616 0.04615384615384616 0.04615384615384616 0.03846153846153846 0.03846153846153846 0.03846153846153846 0.04615384615384616 0.03846153846153846 0.03846153846153846 0.04615384615384616 0.05384615384615385 0.04615384615384616 0.03076923076923077 0.03846153846153846 0.05384615384615385 0.05384615384615385 0.03846153846153846 0.03076923076923077 0.03846153846153846 0.02307692307692308 0.02307692307692308 0.01538461538461539 0.007692307692307693 0.01538461538461539 0.007692307692307693 0 0 0.007692307692307693 -0.007692307692307693 -0.01538461538461539 -0.007692307692307693 -0.02307692307692308 -0.03076923076923077 -0.02307692307692308 -0.03076923076923077 -0.04615384615384616 -0.03076923076923077 -0.03076923076923077 -0.04615384615384616 -0.03076923076923077 -0.03076923076923077 -0.04615384615384616 -0.05384615384615385 -0.03846153846153846 -0.03846153846153846 -0.03846153846153846 -0.03846153846153846 -0.03846153846153846 -0.03846153846153846 -0.02307692307692308 -0.02307692307692308 -0.02307692307692308 -0.02307692307692308 -0.02307692307692308 -0.02307692307692308 -0.02307692307692308 -0.02307692307692308 -0.03076923076923077 -0.03076923076923077 -0.02307692307692308 -0.02307692307692308 -0.02307692307692308 -0.01538461538461539 -0.007692307692307693 -0.007692307692307693 -0.007692307692307693 0 -0.007692307692307693 0 0.007692307692307693 0.01538461538461539 0.01538461538461539 0.01538461538461539 0.007692307692307693 0.01538461538461539 0.02307692307692308 0.03076923076923077 0.03846153846153846 0.04615384615384616 0.03846153846153846 0.03846153846153846 0.03846153846153846 0.03846153846153846 0.04615384615384616 0.04615384615384616 0.03846153846153846 0.06153846153846154 0.07692307692307693 0.06923076923076923 0.06153846153846154 0.06923076923076923 0.06923076923076923 0.06923076923076923 0.06923076923076923 0.06153846153846154 0.06153846153846154 0.07692307692307693 0.08461538461538462 0.07692307692307693 0.08461538461538462 0.07692307692307693 0.08461538461538462 0.08461538461538462 0.09230769230769231 0.09230769230769231 0.1 0.09230769230769231 0.1 0.1076923076923077 0.1076923076923077 0.1153846153846154 0.1153846153846154 0.1230769230769231 0.1153846153846154 0.1153846153846154 0.1153846153846154 0.1307692307692308 0.1307692307692308 0.1230769230769231 0.1307692307692308 0.1230769230769231 0.1230769230769231 0.1153846153846154 0.1153846153846154 0.1230769230769231 0.1230769230769231 0.1307692307692308 0.1384615384615385 0.1384615384615385 0.1461538461538462 0.1461538461538462 0.1384615384615385 0.1461538461538462 0.1384615384615385 0.1461538461538462 0.1461538461538462 0.1461538461538462 0.1461538461538462 0.1461538461538462 0.1461538461538462 0.1538461538461539 0.1538461538461539 0.1461538461538462 0.1461538461538462 0.1538461538461539 0.1615384615384615 0.1846153846153846 0.1846153846153846 0.1769230769230769 0.1923076923076923 0.2 0.1923076923076923 0.1846153846153846 0.1923076923076923 0.1923076923076923 0.1846153846153846 0.1923076923076923 0.1923076923076923 0.2 0.1923076923076923 0.2 0.2 0.2076923076923077 0.2 0.2076923076923077 0.1923076923076923 0.2 0.2076923076923077 0.2076923076923077 0.2153846153846154 0.2153846153846154 0.2076923076923077 0.2 0.2153846153846154 0.2153846153846154 0.2076923076923077 0.2076923076923077 0.2153846153846154 0.2076923076923077 0.2153846153846154 0.2153846153846154 0.2 0.1923076923076923 0.2 0.2153846153846154 0.2076923076923077 0.2 0.2307692307692308 0.2230769230769231 0.2153846153846154 0.2230769230769231 0.2153846153846154 0.2076923076923077 0.2230769230769231 0.2153846153846154 0.2076923076923077 0.2153846153846154 0.2153846153846154 0.2153846153846154 0.2307692307692308 0.2307692307692308 0.2153846153846154 0.2307692307692308 0.2307692307692308 0.2230769230769231 0.2153846153846154 0.2230769230769231 0.2153846153846154 0.2230769230769231 0.2153846153846154 0.2153846153846154 0.2230769230769231 0.2307692307692308 0.2153846153846154 0.2230769230769231 0.2307692307692308 0.2230769230769231 0.2153846153846154 0.2153846153846154 0.2153846153846154 0.2076923076923077 0.2076923076923077 0.1923076923076923 0.1923076923076923 0.2 0.2076923076923077 0.2 0.2 0.2 0.2153846153846154 0.2230769230769231 0.2153846153846154 0.2153846153846154 0.2230769230769231 0.2153846153846154 0.2076923076923077 0.2 0.2076923076923077 0.2076923076923077 0.2 0.2153846153846154 0.2076923076923077 0.2076923076923077 0.2153846153846154 0.2076923076923077 0.2076923076923077 0.2153846153846154 0.2 0.2076923076923077 0.2 0.2 0.2076923076923077 0.2153846153846154 0.2076923076923077 0.2076923076923077 0.2153846153846154 0.2153846153846154 0.2153846153846154 0.2153846153846154 0.2153846153846154 0.2076923076923077 0.2076923076923077 0.2076923076923077 0.2153846153846154 0.2153846153846154 0.2076923076923077 0.2076923076923077 0.2076923076923077 0.2153846153846154 0.2153846153846154 0.2076923076923077 0.2 0.2076923076923077 0.2153846153846154 0.2153846153846154 0.2153846153846154 0.2076923076923077 0.2076923076923077 0.2076923076923077 0.2076923076923077 0.2076923076923077 0.2076923076923077 0.2076923076923077 0.2153846153846154 0.2076923076923077 0.2153846153846154 0.2076923076923077 0.2076923076923077 0.2076923076923077 0.2076923076923077 0.2 0.2076923076923077 0.2 0.2153846153846154 0.2153846153846154 0.2153846153846154 0.2153846153846154 0.2230769230769231 0.2230769230769231 0.2230769230769231 0.2153846153846154 0.2076923076923077 0.2 0.2076923076923077 0.2153846153846154 0.2230769230769231 0.2153846153846154 0.2230769230769231 0.2076923076923077 0.2076923076923077 0.2153846153846154 0.2153846153846154 0.2076923076923077 0.2076923076923077 0.2076923076923077 0.2076923076923077 0.2076923076923077 0.2153846153846154 0.2153846153846154 0.2076923076923077 0.2076923076923077 0.2153846153846154 0.2076923076923077 0.2076923076923077 0.2076923076923077 0.2076923076923077 0.1923076923076923 0.2076923076923077 0.2076923076923077 0.2 0.2 0.2076923076923077 0.2 0.1769230769230769 0.1846153846153846 0.1692307692307692 0.1769230769230769 0.1615384615384615 0.1615384615384615 0.1615384615384615 0.1538461538461539 0.1692307692307692 0.1769230769230769 0.1769230769230769 0.1769230769230769 0.1846153846153846 0.1923076923076923 0.1923076923076923 0.1923076923076923 0.1846153846153846 0.1846153846153846 0.1923076923076923 0.1923076923076923 0.1769230769230769 0.1769230769230769 0.1846153846153846 0.1846153846153846 0.1692307692307692 0.1692307692307692 0.1692307692307692 0.1538461538461539 0.1538461538461539 0.1692307692307692 0.1615384615384615 0.1846153846153846 0.1923076923076923 0.1923076923076923 0.1923076923076923 0.2076923076923077 0.2 0.1923076923076923 0.1846153846153846 0.2 0.1923076923076923 0.1923076923076923 0.1923076923076923 0.1923076923076923 0.1846153846153846 0.1846153846153846 0.1769230769230769 0.1769230769230769 0.1692307692307692 0.1615384615384615 0.1692307692307692 0.1692307692307692 0.1692307692307692 0.1692307692307692 0.1692307692307692 0.1769230769230769 0.1692307692307692 0.1615384615384615 0.1692307692307692 0.1615384615384615 0.1615384615384615 0.1692307692307692 0.1692307692307692 0.1615384615384615 0.1692307692307692 0.1769230769230769 0.1769230769230769 0.1692307692307692 0.1692307692307692 0.1769230769230769 0.1692307692307692 0.1692307692307692 0.1692307692307692 0.1538461538461539 0.1692307692307692 0.1615384615384615 0.1615384615384615 0.1615384615384615 0.1692307692307692 0.1692307692307692 0.1615384615384615 0.1692307692307692 0.1692307692307692 0.1692307692307692 0.1615384615384615 0.1538461538461539 0.1692307692307692 0.1769230769230769 0.1615384615384615 0.1615384615384615 0.1615384615384615 0.1692307692307692 0.1769230769230769 0.1769230769230769 0.1692307692307692 0.1692307692307692 0.1769230769230769 0.1769230769230769 0.1692307692307692 0.1769230769230769 0.1769230769230769 0.1615384615384615 0.1692307692307692 0.1615384615384615 0.1692307692307692 0.1692307692307692 0.1538461538461539 0.1538461538461539 0.1615384615384615 0.1692307692307692 0.1615384615384615 0.1615384615384615 0.1692307692307692 0.1769230769230769 0.1692307692307692 0.1692307692307692 0.1769230769230769 0.1846153846153846 0.1923076923076923 0.1846153846153846 0.1769230769230769 0.1769230769230769 0.1769230769230769 0.1692307692307692 0.1615384615384615 0.1692307692307692 0.1692307692307692 0.1692307692307692 0.1692307692307692 0.1692307692307692 0.1692307692307692 0.1692307692307692 0.1692307692307692 0.1692307692307692 0.1692307692307692 0.1769230769230769 0.1692307692307692 0.1692307692307692 0.1615384615384615 0.1769230769230769 0.1846153846153846 0.1692307692307692 0.1615384615384615 0.1692307692307692 0.1769230769230769 0.1692307692307692 0.1615384615384615 0.1692307692307692 0.1692307692307692 0.1615384615384615 0.1692307692307692 0.1692307692307692 0.1692307692307692 0.1615384615384615 0.1615384615384615 0.1615384615384615 0.1538461538461539 0.1615384615384615 0.1615384615384615 0.1615384615384615 0.1615384615384615 0.1538461538461539 0.1615384615384615 0.1615384615384615 0.1615384615384615 0.1538461538461539 0.1538461538461539 0.1615384615384615 0.1615384615384615 0.1692307692307692 0.1615384615384615 0.1538461538461539 0.1538461538461539 0.1538461538461539 0.1538461538461539 0.1538461538461539 0.1461538461538462 0.1461538461538462 0.1461538461538462 0.1615384615384615 0.1538461538461539 0.1461538461538462 0.1538461538461539 0.1538461538461539 0.1538461538461539 0.1615384615384615 0.1538461538461539 0.1538461538461539 0.1538461538461539 0.1538461538461539 0.1538461538461539 0.1538461538461539 0.1538461538461539 0.1538461538461539 0.1538461538461539 0.1538461538461539 0.1538461538461539 0.1538461538461539 0.1538461538461539 0.1615384615384615 0.1615384615384615 0.1615384615384615 0.1692307692307692 0.1615384615384615 0.1692307692307692 0.1769230769230769 0.1769230769230769 0.1692307692307692 0.1769230769230769 0.1769230769230769 0.1692307692307692 0.1692307692307692 0.1692307692307692 0.1615384615384615 0.1692307692307692 0.1769230769230769 0.1692307692307692 0.1615384615384615 0.1615384615384615 0.1692307692307692 0.1692307692307692 0.1769230769230769 0.1769230769230769 0.1692307692307692 0.1769230769230769 0.1692307692307692 0.1846153846153846 0.1846153846153846 0.1846153846153846 0.1846153846153846 0.1923076923076923 0.1769230769230769 0.1769230769230769 0.1923076923076923 0.1846153846153846 0.1692307692307692 0.1769230769230769 0.1769230769230769 0.1692307692307692 0.1692307692307692 0.1769230769230769 0.1692307692307692 0.1615384615384615 0.1615384615384615 0.1615384615384615 0.1615384615384615 0.1615384615384615 0.1615384615384615 0.1692307692307692 0.1769230769230769 0.1769230769230769 0.1692307692307692 0.1846153846153846 0.1846153846153846 0.1769230769230769 0.1846153846153846 0.1769230769230769 0.1769230769230769 0.1769230769230769 0.1769230769230769 0.1692307692307692 0.1615384615384615 0.1615384615384615 0.1538461538461539 0.1538461538461539 0.1538461538461539 0.1461538461538462 0.1461538461538462 0.1538461538461539 0.1461538461538462 0.1461538461538462 0.1538461538461539 0.1692307692307692 0.1461538461538462 0.1538461538461539 0.1461538461538462 0.1538461538461539 0.1461538461538462 0.1461538461538462 0.1461538461538462 0.1461538461538462 0.1538461538461539 0.1615384615384615 0.1615384615384615 0.1615384615384615 0.1538461538461539 0.1538461538461539 0.1615384615384615 0.1538461538461539 0.1538461538461539 0.1615384615384615 0.1692307692307692 0.1615384615384615 0.1615384615384615 0.1692307692307692 0.1769230769230769 0.1846153846153846 0.1769230769230769 0.1769230769230769 0.1846153846153846 0.1769230769230769 0.1846153846153846 0.1769230769230769 0.1769230769230769 0.1692307692307692 0.1615384615384615 0.1769230769230769 0.1692307692307692 0.1615384615384615 0.1692307692307692 0.1692307692307692 0.1769230769230769 0.1769230769230769 0.1769230769230769 0.1846153846153846 0.1923076923076923 0.2 0.1923076923076923 0.1846153846153846 0.1846153846153846 0.2 0.2 0.1923076923076923 0.1923076923076923 0.1923076923076923 0.1769230769230769 0.1769230769230769 0.1769230769230769 0.1769230769230769 0.1692307692307692 0.1692307692307692 0.1769230769230769 0.1769230769230769 0.1692307692307692 0.1692307692307692 0.1846153846153846 0.1923076923076923 0.1923076923076923 0.1923076923076923 0.1846153846153846 0.1846153846153846 0.1769230769230769 0.1846153846153846 0.1769230769230769 0.1769230769230769 0.1846153846153846 0.1769230769230769 0.1692307692307692 0.1692307692307692 0.1615384615384615 0.1538461538461539 0.1538461538461539 0.1538461538461539 0.1461538461538462 0.1615384615384615 0.1615384615384615 0.1692307692307692 0.1692307692307692 0.1769230769230769 0.1769230769230769 0.1769230769230769 0.1769230769230769 0.1846153846153846 0.1769230769230769 0.1769230769230769 0.1769230769230769 0.1846153846153846 0.1846153846153846 0.1615384615384615 0.1538461538461539 0.1769230769230769 0.1615384615384615 0.1538461538461539 0.1615384615384615 0.1615384615384615 0.1538461538461539 0.1538461538461539 0.1692307692307692 0.1769230769230769 0.1615384615384615 0.1615384615384615 0.1846153846153846 0.1692307692307692 0.1769230769230769 0.1692307692307692 0.1769230769230769 0.1769230769230769 0.1846153846153846 0.1769230769230769 0.1615384615384615 0.1615384615384615 0.1615384615384615 0.1615384615384615 0.1615384615384615 0.1538461538461539 0.1538461538461539 0.1615384615384615 0.1692307692307692 0.1692307692307692 0.1692307692307692 0.1692307692307692 0.1692307692307692 0.1692307692307692 0.1769230769230769 0.1846153846153846 0.1846153846153846 0.1923076923076923 0.1923076923076923 0.2076923076923077 0.2076923076923077 0.2153846153846154 0.2153846153846154 0.2076923076923077 0.2153846153846154 0.2307692307692308 0.2307692307692308 0.2230769230769231 0.2307692307692308 0.2384615384615385 0.2230769230769231 0.2307692307692308 0.2384615384615385 0.2307692307692308 0.2307692307692308 0.2307692307692308 0.2230769230769231 0.2307692307692308 0.2384615384615385 0.2384615384615385 0.2307692307692308 0.2307692307692308 0.2307692307692308 0.2307692307692308 0.2307692307692308 0.2230769230769231 0.2153846153846154 0.2 0.2 0.2 0.2076923076923077 0.2076923076923077 0.2 0.2 0.2 0.2 0.2076923076923077 0.2076923076923077 0.2 0.2 0.2076923076923077 0.2 0.2 0.2 0.2 0.1923076923076923 0.2 0.2 0.2 0.2 0.2076923076923077 0.1923076923076923 0.2 0.2 0.2076923076923077 0.2 0.2 0.2 0.2076923076923077 0.2153846153846154 0.2153846153846154 0.2076923076923077 0.2076923076923077 0.2 0.2 0.2 0.2 0.1923076923076923 0.1846153846153846 0.1769230769230769 0.1692307692307692 0.1692307692307692 0.1769230769230769 0.1692307692307692 0.1769230769230769 0.1615384615384615 0.1461538461538462 0.1538461538461539 0.1615384615384615 0.1615384615384615 0.1615384615384615 0.1692307692307692 0.1692307692307692 0.1692307692307692 0.1769230769230769 0.1769230769230769 0.1692307692307692 0.1692307692307692 0.1615384615384615 0.1692307692307692 0.1692307692307692 0.1615384615384615 0.1615384615384615 0.1692307692307692 0.1615384615384615 0.1692307692307692 0.1692307692307692 0.1692307692307692 0.1692307692307692 0.1692307692307692 0.1692307692307692 0.1692307692307692 0.1692307692307692 0.1615384615384615 0.1692307692307692 0.1615384615384615 0.1692307692307692 0.1692307692307692 0.1615384615384615 0.1615384615384615 0.1538461538461539 0.1615384615384615 0.1538461538461539 0.1538461538461539 0.1615384615384615 0.1538461538461539 0.1615384615384615 0.1769230769230769 0.1846153846153846 0.1923076923076923 0.2 0.1923076923076923 0.2 0.2153846153846154 0.2384615384615385 0.2692307692307692 0.2846153846153846 0.3076923076923077 0.3230769230769231 0.3384615384615385 0.3615384615384615 0.3615384615384615 0.3538461538461539 0.3615384615384615 0.3538461538461539 0.3461538461538461 0.3461538461538461 0.3461538461538461 0.3307692307692308 0.3 0.2769230769230769 0.2615384615384616 0.2307692307692308 0.2076923076923077 0.1923076923076923 0.1769230769230769 0.1692307692307692 0.1461538461538462 0.1230769230769231 0.1 0.07692307692307693 0.07692307692307693 0.06923076923076923 0.07692307692307693 0.07692307692307693 0.07692307692307693 0.08461538461538462 0.09230769230769231 0.09230769230769231 0.09230769230769231 0.09230769230769231 0.09230769230769231 0.1076923076923077 0.1230769230769231 0.1307692307692308 0.1384615384615385 0.1384615384615385 0.1384615384615385 0.1461538461538462 0.1538461538461539 0.1461538461538462 0.1538461538461539 0.1615384615384615 0.1538461538461539 0.1538461538461539 0.1615384615384615 0.1538461538461539 0.1461538461538462 0.1384615384615385 0.1384615384615385 0.1307692307692308 0.1384615384615385 0.1307692307692308 0.1230769230769231 0.1230769230769231 0.1230769230769231 0.1230769230769231 0.1230769230769231 0.1230769230769231 0.1307692307692308 0.1384615384615385 0.1461538461538462 0.1538461538461539 0.1615384615384615 0.1461538461538462 0.1384615384615385 0.1615384615384615 0.1615384615384615 0.1461538461538462 0.1461538461538462 0.1461538461538462 0.1538461538461539 0.1538461538461539 0.1615384615384615 0.1538461538461539 0.1538461538461539 0.1615384615384615 0.1615384615384615 0.1615384615384615 0.1769230769230769 0.1846153846153846 0.1846153846153846 0.1692307692307692 0.1769230769230769 0.1769230769230769 0.1692307692307692 0.1769230769230769 0.1769230769230769 0.1692307692307692 0.1846153846153846 0.1846153846153846 0.1692307692307692 0.1846153846153846 0.1769230769230769 0.1692307692307692 0.1692307692307692 0.1692307692307692 0.1615384615384615 0.1615384615384615 0.1615384615384615 0.1615384615384615 0.1615384615384615 0.1692307692307692 0.1615384615384615 0.1769230769230769 0.1846153846153846 0.1846153846153846 0.1923076923076923 0.1923076923076923 0.1923076923076923 0.1769230769230769 0.1769230769230769 0.1846153846153846 0.1769230769230769 0.1769230769230769 0.1692307692307692 0.1769230769230769 0.1846153846153846 0.1846153846153846 0.1846153846153846 0.1923076923076923 0.2 0.1923076923076923 0.1923076923076923 0.1923076923076923 0.1846153846153846 0.1769230769230769 0.1923076923076923 0.2 0.2 0.1923076923076923 0.1846153846153846 0.1846153846153846 0.1846153846153846 0.1923076923076923 0.1846153846153846 0.1846153846153846 0.1769230769230769 0.1846153846153846 0.1923076923076923 0.1846153846153846 0.1846153846153846 0.1923076923076923 0.1923076923076923 0.1846153846153846 0.1846153846153846 0.2 0.2076923076923077 0.2 0.1923076923076923 0.2 0.2 0.1923076923076923 0.1846153846153846 0.1923076923076923 0.1923076923076923 0.1923076923076923 0.1923076923076923 0.1923076923076923 0.2 0.1923076923076923 0.2 0.2 0.2 0.2076923076923077 0.2 0.1923076923076923 0.2230769230769231 0.2307692307692308 0.2230769230769231 0.2230769230769231 0.2230769230769231 0.2307692307692308 0.2230769230769231 0.2307692307692308 0.2307692307692308 0.2230769230769231 0.2384615384615385 0.2384615384615385 0.2307692307692308 0.2307692307692308 0.2384615384615385 0.2461538461538462 0.2384615384615385 0.2384615384615385 0.2461538461538462 0.2307692307692308 0.2307692307692308 0.2384615384615385 0.2461538461538462 0.2461538461538462 0.2461538461538462 0.2538461538461538 0.2615384615384616 0.2692307692307692 0.2615384615384616 0.2538461538461538 0.2692307692307692 0.2615384615384616 0.2538461538461538 0.2615384615384616 0.2538461538461538 0.2615384615384616 0.2692307692307692 0.2769230769230769 0.2769230769230769 0.2769230769230769 0.2692307692307692 0.2615384615384616 0.2692307692307692 0.2769230769230769 0.2846153846153846 0.2846153846153846 0.2846153846153846 0.2846153846153846 0.2846153846153846 0.2692307692307692 0.2769230769230769 0.2846153846153846 0.3 0.2846153846153846 0.2769230769230769 0.2769230769230769 0.2846153846153846 0.3 0.3 0.3076923076923077 0.3 0.3076923076923077 0.3153846153846154 0.3307692307692308 0.3230769230769231 0.3 0.3076923076923077 0.3230769230769231 0.3230769230769231 0.3230769230769231 0.3153846153846154 0.3 0.2923076923076923 0.3 0.3 0.2923076923076923 0.2923076923076923 0.2923076923076923 0.2846153846153846 0.2692307692307692 0.2923076923076923 0.2846153846153846 0.2769230769230769 0.2692307692307692 0.2692307692307692 0.2692307692307692 0.2692307692307692 0.2692307692307692 0.2615384615384616 0.2615384615384616 0.2538461538461538 0.2461538461538462 0.2384615384615385 0.2538461538461538 0.2461538461538462 0.2538461538461538 0.2615384615384616 0.2615384615384616 0.2615384615384616 0.2615384615384616 0.2615384615384616 0.2461538461538462 0.2461538461538462 0.2461538461538462 0.2461538461538462 0.2461538461538462 0.2461538461538462 0.2538461538461538 0.2538461538461538 0.2461538461538462 0.2307692307692308 0.2384615384615385 0.2384615384615385 0.2461538461538462 0.2384615384615385 0.2384615384615385 0.2384615384615385 0.2384615384615385 0.2384615384615385 0.2384615384615385 0.2230769230769231 0.2307692307692308 0.2307692307692308 0.2230769230769231 0.2153846153846154 0.2076923076923077 0.2076923076923077 0.2153846153846154 0.2076923076923077 0.2 0.2 0.2153846153846154 0.2076923076923077 0.2 0.2076923076923077 0.2076923076923077 0.2 0.1923076923076923 0.2 0.2 0.2153846153846154 0.2153846153846154 0.2076923076923077 0.2153846153846154 0.2153846153846154 0.2076923076923077 0.2 0.2076923076923077 0.2 0.1923076923076923 0.1846153846153846 0.2 0.2 0.1846153846153846 0.1846153846153846 0.1846153846153846 0.1846153846153846 0.1923076923076923 0.1923076923076923 0.1846153846153846 0.1846153846153846 0.1769230769230769 0.1923076923076923 0.1923076923076923 0.1923076923076923 0.2 0.2 0.1923076923076923 0.1923076923076923 0.2153846153846154 0.2230769230769231 0.2153846153846154 0.2230769230769231 0.2076923076923077 0.2153846153846154 0.2153846153846154 0.2153846153846154 0.2076923076923077 0.2 0.1923076923076923 0.1923076923076923 0.2 0.2153846153846154 0.2307692307692308 0.2153846153846154 0.2153846153846154 0.2 0.2230769230769231 0.2230769230769231 0.2153846153846154 0.2153846153846154 0.2230769230769231 0.2230769230769231 0.2230769230769231 0.2230769230769231 0.2153846153846154 0.2153846153846154 0.2230769230769231 0.2307692307692308 0.2230769230769231 0.2230769230769231 0.2153846153846154 0.2230769230769231 0.2153846153846154 0.2153846153846154 0.2153846153846154 0.2230769230769231 0.2307692307692308 0.2230769230769231 0.2076923076923077 0.2307692307692308 0.2307692307692308 0.2307692307692308 0.2307692307692308 0.2307692307692308 0.2230769230769231 0.2 0.2153846153846154 0.2307692307692308 0.2153846153846154 0.2153846153846154 0.2 0.1923076923076923 0.2 0.1923076923076923 0.1923076923076923 0.1923076923076923 0.1923076923076923 0.2 0.2 0.2 0.1923076923076923 0.2 0.2076923076923077 0.2 0.2076923076923077 0.2076923076923077 0.2076923076923077 0.2076923076923077 0.2153846153846154 0.2230769230769231 0.2230769230769231 0.2230769230769231 0.2307692307692308 0.2230769230769231 0.2153846153846154 0.2153846153846154 0.2153846153846154 0.2076923076923077 0.2076923076923077 0.1923076923076923 0.1923076923076923 0.2 0.2 0.1923076923076923 0.2 0.2 0.2 0.2 0.1923076923076923 0.1923076923076923 0.2 0.2 0.1846153846153846 0.1846153846153846 0.1923076923076923 0.1846153846153846 0.1846153846153846 0.1846153846153846 0.1846153846153846 0.1846153846153846 0.1769230769230769 0.1923076923076923 0.1846153846153846 0.1769230769230769 0.1846153846153846 0.1846153846153846 0.1923076923076923 0.1846153846153846 0.1846153846153846 0.1923076923076923 0.1923076923076923 0.1769230769230769 0.1769230769230769 0.1923076923076923 0.2 0.1923076923076923 0.1846153846153846 0.1846153846153846 0.1923076923076923 0.1846153846153846 0.1846153846153846 0.1846153846153846 0.1923076923076923 0.1923076923076923 0.1923076923076923 0.1923076923076923 0.1923076923076923 0.1923076923076923 0.1923076923076923 0.1923076923076923 0.1846153846153846 0.1846153846153846 0.1846153846153846 0.1692307692307692 0.1615384615384615 0.1692307692307692 0.1615384615384615 0.1615384615384615 0.1615384615384615 0.1461538461538462 0.1615384615384615 0.1692307692307692 0.1769230769230769 0.1846153846153846 0.1846153846153846 0.1846153846153846 0.1846153846153846 0.1769230769230769 0.1769230769230769 0.1769230769230769 0.1846153846153846 0.1846153846153846 0.1846153846153846 0.1923076923076923 0.2 0.2 0.1923076923076923 0.1923076923076923 0.2 0.2 0.2 0.2 0.1923076923076923 0.1846153846153846 0.1846153846153846 0.1846153846153846 0.1846153846153846 0.1769230769230769 0.1769230769230769 0.1846153846153846 0.1692307692307692 0.1692307692307692 0.1692307692307692 0.1769230769230769 0.1692307692307692 0.1923076923076923 0.1923076923076923 0.1846153846153846 0.1923076923076923 0.2076923076923077 0.2153846153846154 0.2153846153846154 0.2153846153846154 0.2153846153846154 0.2230769230769231 0.2307692307692308 0.2461538461538462 0.2538461538461538 0.2461538461538462 0.2538461538461538 0.2615384615384616 0.2538461538461538 0.2461538461538462 0.2615384615384616 0.2692307692307692 0.2615384615384616 0.2615384615384616 0.2615384615384616 0.2538461538461538 0.2461538461538462 0.2538461538461538 0.2384615384615385 0.2384615384615385 0.2461538461538462 0.2307692307692308 0.2230769230769231 0.2307692307692308 0.2307692307692308 0.2153846153846154 0.2076923076923077 0.2 0.1692307692307692 0.1538461538461539 0.1461538461538462 0.1230769230769231 0.1076923076923077 0.07692307692307693 0.04615384615384616 0.01538461538461539 -0.007692307692307693 -0.03846153846153846 -0.06153846153846154 -0.09230769230769231 -0.1307692307692308 -0.1692307692307692 -0.2 -0.2384615384615385 -0.2769230769230769 -0.3153846153846154 -0.3461538461538461 -0.3615384615384615 -0.3615384615384615 -0.3692307692307693 -0.3692307692307693 -0.3769230769230769 -0.3923076923076923 -0.3923076923076923 -0.3846153846153846 -0.3615384615384615 -0.3384615384615385 -0.3307692307692308 -0.3153846153846154 -0.3 -0.2923076923076923 -0.2538461538461538 -0.2307692307692308 -0.2 -0.1769230769230769 -0.1615384615384615 -0.1307692307692308 -0.1 -0.09230769230769231 -0.08461538461538462 -0.08461538461538462 -0.08461538461538462 -0.08461538461538462 -0.07692307692307693 -0.08461538461538462 -0.08461538461538462 -0.06153846153846154 -0.07692307692307693 -0.07692307692307693 -0.06153846153846154 -0.06923076923076923 -0.07692307692307693 -0.04615384615384616 -0.04615384615384616 -0.05384615384615385 -0.03076923076923077 -0.02307692307692308 -0.03076923076923077 -0.02307692307692308 -0.007692307692307693 0.007692307692307693 0.007692307692307693 0.007692307692307693 0.01538461538461539 0.03076923076923077 0.03076923076923077 0.03076923076923077 0.05384615384615385 0.06153846153846154 0.06153846153846154 0.05384615384615385 0.06923076923076923 0.08461538461538462 0.08461538461538462 0.08461538461538462 0.1 0.1153846153846154 0.1307692307692308 0.1384615384615385 0.1615384615384615 0.1846153846153846 0.1923076923076923 0.2 0.1923076923076923 0.1923076923076923 0.2 0.1846153846153846 0.1923076923076923 0.1923076923076923 0.1923076923076923 0.2 0.2 0.2 0.2 0.2076923076923077 0.2153846153846154 0.2230769230769231 0.2230769230769231 0.2307692307692308 0.2307692307692308 0.2307692307692308 0.2307692307692308 0.2307692307692308 0.2384615384615385 0.2384615384615385 0.2384615384615385 0.2384615384615385 0.2461538461538462 0.2384615384615385 0.2384615384615385 0.2461538461538462 0.2538461538461538 0.2384615384615385 0.2307692307692308 0.2461538461538462 0.2384615384615385 0.2307692307692308 0.2307692307692308 0.2307692307692308 0.2384615384615385 0.2384615384615385 0.2461538461538462 0.2461538461538462 0.2384615384615385 0.2384615384615385 0.2538461538461538 0.2461538461538462 0.2461538461538462 0.2384615384615385 0.2461538461538462 0.2461538461538462 0.2384615384615385 0.2461538461538462 0.2538461538461538 0.2538461538461538 0.2538461538461538 0.2538461538461538 0.2692307692307692 0.2692307692307692 0.2615384615384616 0.2615384615384616 0.2538461538461538 0.2615384615384616 0.2615384615384616 0.2692307692307692 0.2692307692307692 0.2538461538461538 0.2461538461538462 0.2538461538461538 0.2615384615384616 0.2769230769230769 0.2846153846153846 0.2846153846153846 0.2769230769230769 0.2769230769230769 0.2846153846153846 0.2846153846153846 0.2923076923076923 0.2846153846153846 0.2923076923076923 0.2846153846153846 0.2923076923076923 0.3 0.3153846153846154 0.3076923076923077 0.3153846153846154 0.3307692307692308 0.3230769230769231 0.3307692307692308 0.3461538461538461 0.3461538461538461 0.3307692307692308 0.3384615384615385 0.3384615384615385 0.3384615384615385 0.3461538461538461 0.3538461538461539 0.3384615384615385 0.3538461538461539 0.3692307692307693 0.3692307692307693 0.3769230769230769 0.3769230769230769 0.3846153846153846 0.4 0.4230769230769231 0.4384615384615385 0.4538461538461538 0.4692307692307692 0.4769230769230769 0.4692307692307692 0.4769230769230769 0.5076923076923077 0.5153846153846153 0.5230769230769231 0.5307692307692308 0.5307692307692308 0.5384615384615384 0.5692307692307692 0.5923076923076923 0.5923076923076923 0.6153846153846154 0.6384615384615384 0.6461538461538462 0.6384615384615384 0.6692307692307692 0.6615384615384615 0.6692307692307692 0.6923076923076923 0.7 0.7076923076923077 0.7153846153846154 0.7307692307692307 0.7230769230769231 0.7076923076923077 0.7153846153846154 0.7307692307692307 0.7384615384615385 0.7384615384615385 0.7230769230769231 0.7153846153846154 0.7153846153846154 0.7307692307692307 0.7307692307692307 0.7153846153846154 0.7230769230769231 0.7230769230769231 0.7153846153846154 0.7153846153846154 0.7153846153846154 0.7076923076923077 0.7 0.7 0.6923076923076923 0.6846153846153846 0.676923076923077 0.6846153846153846 0.6692307692307692 0.6692307692307692 0.6615384615384615 0.6461538461538462 0.6307692307692307 0.6230769230769231 0.6153846153846154 0.6 0.5923076923076923 0.5769230769230769 0.5769230769230769 0.5692307692307692 0.5692307692307692 0.5923076923076923 0.5769230769230769 0.5692307692307692 0.5692307692307692 0.5615384615384615 0.5538461538461539 0.5461538461538461 0.5384615384615384 0.5307692307692308 0.5307692307692308 0.5230769230769231 0.5153846153846153 0.5 0.4923076923076923 0.4846153846153846 0.4692307692307692 0.4538461538461538 0.4461538461538462 0.4307692307692308 0.4230769230769231 0.4153846153846154 0.4153846153846154 0.4076923076923077 0.4 0.3923076923076923 0.3769230769230769 0.3692307692307693 0.3692307692307693 0.3538461538461539 0.3461538461538461 0.3538461538461539 0.3384615384615385 0.3307692307692308 0.3384615384615385 0.3461538461538461 0.3461538461538461 0.3307692307692308 0.3230769230769231 0.3230769230769231 0.3230769230769231 0.3230769230769231 0.3153846153846154 0.3 0.2923076923076923 0.2923076923076923 0.2769230769230769 0.2769230769230769 0.2769230769230769 0.2769230769230769 0.2692307692307692 0.2769230769230769 0.2769230769230769 0.2769230769230769 0.2769230769230769 0.2769230769230769 0.2692307692307692 0.2692307692307692 0.2692307692307692 0.2692307692307692 0.2538461538461538 0.2461538461538462 0.2461538461538462 0.2538461538461538 0.2615384615384616 0.2538461538461538 0.2538461538461538 0.2461538461538462 0.2538461538461538 0.2538461538461538 0.2538461538461538 0.2538461538461538 0.2461538461538462 0.2461538461538462 0.2461538461538462 0.2538461538461538 0.2538461538461538 0.2384615384615385 0.2384615384615385 0.2384615384615385 0.2461538461538462 0.2461538461538462 0.2538461538461538 0.2461538461538462 0.2615384615384616 0.2615384615384616 0.2615384615384616 0.2615384615384616 0.2769230769230769 0.2769230769230769 0.2615384615384616 0.2461538461538462 0.2461538461538462 0.2461538461538462 0.2538461538461538 0.2461538461538462 0.2461538461538462 0.2461538461538462 0.2307692307692308 0.2461538461538462 0.2461538461538462 0.2461538461538462 0.2461538461538462 0.2384615384615385 0.2230769230769231 0.2230769230769231 0.2307692307692308 0.2307692307692308 0.2307692307692308 0.2307692307692308 0.2230769230769231 0.2307692307692308 0.2307692307692308 0.2307692307692308 0.2384615384615385 0.2307692307692308 0.2230769230769231 0.2230769230769231 0.2307692307692308 0.2230769230769231 0.2153846153846154 0.2153846153846154 0.2153846153846154 0.2 0.2 0.2076923076923077 0.1923076923076923 0.1923076923076923 0.1923076923076923 0.2 0.2076923076923077 0.2153846153846154 0.2153846153846154 0.2153846153846154 0.2230769230769231 0.2230769230769231 0.2153846153846154 0.2076923076923077 0.2076923076923077 0.2 0.1923076923076923 0.2 0.2 0.2 0.2 0.1923076923076923 0.1923076923076923 0.1923076923076923 0.2 0.2 0.1923076923076923 0.1923076923076923 0.1923076923076923 0.1923076923076923 0.2076923076923077 0.1923076923076923 0.1923076923076923 0.1923076923076923 0.1846153846153846 0.1769230769230769 0.1769230769230769 0.1769230769230769 0.1923076923076923 0.1846153846153846 0.1769230769230769 0.1846153846153846 0.1923076923076923 0.1846153846153846 0.1923076923076923 0.2 0.2 0.2 0.2076923076923077 0.2 0.2 0.2 0.1923076923076923 0.1923076923076923 0.2 0.1923076923076923 0.1923076923076923 0.1923076923076923 0.2 0.1923076923076923 0.1923076923076923 0.2 0.1923076923076923 0.1846153846153846 0.1923076923076923 0.1923076923076923 0.1923076923076923 0.2 0.1923076923076923 0.1923076923076923 0.1846153846153846 0.1846153846153846 0.1846153846153846 0.1846153846153846 0.1846153846153846 0.1846153846153846 0.1769230769230769 0.1769230769230769 0.1769230769230769 0.1692307692307692 0.1769230769230769 0.1692307692307692 0.1692307692307692 0.1692307692307692 0.1769230769230769 0.1769230769230769 0.1846153846153846 0.1769230769230769 0.1769230769230769 0.1846153846153846 0.2 0.1846153846153846 0.1769230769230769 0.1769230769230769 0.1923076923076923 0.1923076923076923 0.2 0.2 0.2 0.2076923076923077 0.2 0.2 0.2076923076923077 0.2153846153846154 0.2 0.2 0.2153846153846154 0.2 0.2 0.2 0.2 0.2 0.2 0.2 0.1923076923076923 0.1923076923076923 0.2 0.2076923076923077 0.2 0.2076923076923077 0.2 0.2 0.2 0.2 0.2 0.2 0.2 0.1769230769230769 0.1769230769230769 0.1692307692307692 0.1692307692307692 0.1615384615384615 0.1615384615384615 0.1538461538461539 0.1538461538461539 0.1615384615384615 0.1692307692307692 0.1769230769230769 0.1846153846153846 0.1846153846153846 0.1846153846153846 0.1846153846153846 0.1923076923076923 0.1923076923076923 0.1846153846153846 0.1923076923076923 0.1923076923076923 0.1923076923076923 0.1923076923076923 0.1923076923076923 0.1923076923076923 0.1846153846153846 0.1923076923076923 0.1923076923076923 0.1923076923076923 0.2 0.2 0.2 0.2 0.2 0.1923076923076923 0.2 0.2076923076923077 0.1923076923076923 0.1846153846153846 0.1846153846153846 0.1769230769230769 0.1615384615384615 0.1769230769230769 0.1769230769230769 0.1846153846153846 0.1923076923076923 0.1923076923076923 0.1846153846153846 0.1923076923076923 0.1923076923076923 0.1923076923076923 0.1923076923076923 0.2 0.2 0.2 0.1923076923076923 0.2076923076923077 0.2153846153846154 0.2076923076923077 0.1923076923076923 0.1846153846153846 0.1846153846153846 0.1769230769230769 0.1692307692307692 0.1615384615384615 0.1692307692307692 0.1692307692307692 0.1769230769230769 0.1692307692307692 0.1769230769230769 0.1846153846153846 0.1846153846153846 0.1846153846153846 0.1846153846153846 0.1846153846153846 0.1923076923076923 0.1923076923076923 0.1846153846153846 0.1846153846153846 0.1923076923076923 0.1769230769230769 0.1769230769230769 0.1846153846153846 0.1846153846153846 0.1692307692307692 0.1615384615384615 0.1846153846153846 0.1769230769230769 0.1769230769230769 0.1846153846153846 0.1769230769230769 0.1769230769230769 0.1846153846153846 0.1769230769230769 0.1692307692307692 0.1692307692307692 0.1769230769230769 0.1846153846153846 0.1923076923076923 0.1769230769230769 0.1769230769230769 0.1923076923076923 0.1769230769230769 0.1615384615384615 0.1692307692307692 0.1692307692307692 0.1615384615384615 0.1692307692307692 0.1769230769230769 0.1846153846153846 0.1846153846153846 0.1769230769230769 0.1769230769230769 0.1846153846153846 0.2 0.2 0.1769230769230769 0.1846153846153846 0.1846153846153846 0.1769230769230769 0.1846153846153846 0.1923076923076923 0.1923076923076923 0.1846153846153846 0.1846153846153846 0.1769230769230769 0.1615384615384615 0.1692307692307692 0.1692307692307692 0.1615384615384615 0.1769230769230769 0.1923076923076923 0.1846153846153846 0.1846153846153846 0.1846153846153846 0.1769230769230769 0.1846153846153846 0.1923076923076923 0.1846153846153846 0.1769230769230769 0.1846153846153846 0.2 0.1846153846153846 0.1846153846153846 0.1846153846153846 0.1769230769230769 0.1846153846153846 0.1923076923076923 0.1769230769230769 0.1846153846153846 0.1846153846153846 0.1846153846153846 0.1769230769230769 0.1846153846153846 0.1846153846153846 0.1846153846153846 0.1923076923076923 0.1923076923076923 0.1769230769230769 0.1769230769230769 0.1769230769230769 0.1846153846153846 0.1769230769230769 0.1923076923076923 0.1923076923076923 0.1769230769230769 0.1769230769230769 0.1846153846153846 0.1923076923076923 0.1923076923076923 0.1846153846153846 0.1846153846153846 0.1923076923076923 0.1923076923076923 0.1923076923076923 0.1769230769230769 0.1923076923076923 0.1923076923076923 0.1846153846153846 0.1846153846153846 0.1846153846153846 0.1846153846153846 0.1846153846153846 0.1846153846153846 0.1846153846153846 0.1846153846153846 0.1923076923076923 0.2 0.2 0.1846153846153846 0.1846153846153846 0.1846153846153846 0.1615384615384615 0.1615384615384615 0.1692307692307692 0.1692307692307692 0.1615384615384615 0.1692307692307692 0.1769230769230769 0.1769230769230769 0.1692307692307692 0.1769230769230769 0.1769230769230769 0.1846153846153846 0.1846153846153846 0.1769230769230769 0.1769230769230769 0.1846153846153846 0.1846153846153846 0.1923076923076923 0.1923076923076923 0.1846153846153846 0.1769230769230769 0.1846153846153846 0.1769230769230769 0.1692307692307692 0.1769230769230769 0.1769230769230769 0.1769230769230769 0.1769230769230769 0.1769230769230769 0.1769230769230769 0.1769230769230769 0.1846153846153846 0.1692307692307692 0.1615384615384615 0.1615384615384615 0.1692307692307692 0.1692307692307692 0.1769230769230769 0.1692307692307692 0.1615384615384615 0.1615384615384615 0.1769230769230769 0.1692307692307692 0.1692307692307692 0.1769230769230769 0.1692307692307692 0.1692307692307692 0.1846153846153846 0.1769230769230769 0.1769230769230769 0.1923076923076923 0.1846153846153846 0.1846153846153846 0.1923076923076923 0.2 0.2 0.2 0.1923076923076923 0.1846153846153846 0.1923076923076923 0.1923076923076923 0.1923076923076923 0.2153846153846154 0.2076923076923077 0.2076923076923077 0.2153846153846154 0.2076923076923077 0.2076923076923077 0.2153846153846154 0.2076923076923077 0.1923076923076923 0.2076923076923077 0.2230769230769231 0.2076923076923077 0.2153846153846154 0.2230769230769231 0.2230769230769231 0.2307692307692308 0.2461538461538462 0.2461538461538462 0.2384615384615385 0.2461538461538462 0.2384615384615385 0.2384615384615385 0.2461538461538462 0.2307692307692308 0.2153846153846154 0.2230769230769231 0.2230769230769231 0.2153846153846154 0.2076923076923077 0.2153846153846154 0.2153846153846154 0.2153846153846154 0.2076923076923077 0.2 0.2 0.1923076923076923 0.1846153846153846 0.1923076923076923 0.1846153846153846 0.1846153846153846 0.1923076923076923 0.1769230769230769 0.1846153846153846 0.1846153846153846 0.1846153846153846 0.1769230769230769 0.1846153846153846 0.1846153846153846 0.1846153846153846 0.1692307692307692 0.1538461538461539 0.1692307692307692 0.1692307692307692 0.1615384615384615 0.1461538461538462 0.1538461538461539 0.1538461538461539 0.1461538461538462 0.1615384615384615 0.1615384615384615 0.1615384615384615 0.1615384615384615 0.1538461538461539 0.1538461538461539 0.1538461538461539 0.1538461538461539 0.1538461538461539 0.1461538461538462 0.1384615384615385 0.1461538461538462 0.1461538461538462 0.1461538461538462 0.1384615384615385 0.1384615384615385 0.1461538461538462 0.1384615384615385 0.1461538461538462 0.1461538461538462 0.1461538461538462 0.1461538461538462 0.1384615384615385 0.1384615384615385 0.1384615384615385 0.1384615384615385 0.1384615384615385 0.1384615384615385 0.1461538461538462 0.1461538461538462 0.1538461538461539 0.1538461538461539 0.1461538461538462 0.1538461538461539 0.1461538461538462 0.1461538461538462 0.1538461538461539 0.1615384615384615 0.1538461538461539 0.1461538461538462 0.1461538461538462 0.1461538461538462 0.1538461538461539 0.1538461538461539 0.1384615384615385 0.1461538461538462 0.1538461538461539 0.1615384615384615 0.1692307692307692 0.1692307692307692 0.1615384615384615 0.1538461538461539 0.1538461538461539 0.1538461538461539 0.1538461538461539 0.1615384615384615 0.1615384615384615 0.1615384615384615 0.1692307692307692 0.1769230769230769 0.1846153846153846 0.1923076923076923 0.1923076923076923 0.1923076923076923 0.2 0.2076923076923077 0.2153846153846154 0.2153846153846154 0.2230769230769231 0.2307692307692308 0.2307692307692308 0.2307692307692308 0.2384615384615385 0.2307692307692308 0.2307692307692308 0.2384615384615385 0.2384615384615385 0.2615384615384616 0.3 0.3307692307692308 0.3615384615384615 0.4 0.4076923076923077 0.4153846153846154 0.4153846153846154 0.3846153846153846 0.3692307692307693 0.3692307692307693 0.3384615384615385 0.3230769230769231 0.3153846153846154 0.2923076923076923 0.2538461538461538 0.2307692307692308 0.2153846153846154 0.1846153846153846 0.1538461538461539 0.1307692307692308 0.1153846153846154 0.1153846153846154 0.1076923076923077 0.09230769230769231 0.07692307692307693 0.05384615384615385 0.05384615384615385 0.05384615384615385 0.07692307692307693 0.09230769230769231 0.1 0.1 0.1153846153846154 0.1153846153846154 0.1153846153846154 0.1076923076923077 0.1230769230769231 0.1230769230769231 0.1230769230769231 0.1076923076923077 0.09230769230769231 0.1 0.1076923076923077 0.1153846153846154 0.1230769230769231 0.1384615384615385 0.1461538461538462 0.1538461538461539 0.1615384615384615 0.1538461538461539 0.1615384615384615 0.1538461538461539 0.1615384615384615 0.1461538461538462 0.1615384615384615 0.1615384615384615 0.1538461538461539 0.1615384615384615 0.1692307692307692 0.1769230769230769 0.1615384615384615 0.1692307692307692 0.1769230769230769 0.1692307692307692 0.1692307692307692 0.1846153846153846 0.1615384615384615 0.1692307692307692 0.1769230769230769 0.1769230769230769 0.1692307692307692 0.1846153846153846 0.1846153846153846 0.1769230769230769 0.1923076923076923 0.1769230769230769 0.1769230769230769 0.1846153846153846 0.1846153846153846 0.1769230769230769 0.1769230769230769 0.1692307692307692 0.1615384615384615 0.1615384615384615 0.1615384615384615 0.1538461538461539 0.1615384615384615 0.1692307692307692 0.1769230769230769 0.1846153846153846 0.1923076923076923 0.1923076923076923 0.1846153846153846 0.1692307692307692 0.1615384615384615 0.1692307692307692 0.1769230769230769 0.1769230769230769 0.1769230769230769 0.1692307692307692 0.1692307692307692 0.1615384615384615 0.1692307692307692 0.1846153846153846 0.1692307692307692 0.1615384615384615 0.1692307692307692 0.1769230769230769 0.1769230769230769 0.1846153846153846 0.1846153846153846 0.1769230769230769 0.1846153846153846 0.1923076923076923 0.1846153846153846 0.1846153846153846 0.1846153846153846 0.1846153846153846 0.1846153846153846 0.1923076923076923 0.1923076923076923 0.1692307692307692 0.1846153846153846 0.1846153846153846 0.1769230769230769 0.1692307692307692 0.1692307692307692 0.1692307692307692 0.1615384615384615 0.1615384615384615 0.1615384615384615 0.1538461538461539 0.1615384615384615 0.1615384615384615 0.1615384615384615 0.1615384615384615 0.1692307692307692 0.1692307692307692 0.1769230769230769 0.1846153846153846 0.1923076923076923 0.1769230769230769 0.1692307692307692 0.1769230769230769 0.1769230769230769 0.1692307692307692 0.1615384615384615 0.1538461538461539 0.1538461538461539 0.1538461538461539 0.1538461538461539 0.1615384615384615 0.1538461538461539 0.1538461538461539 0.1615384615384615 0.1692307692307692 0.1769230769230769 0.1692307692307692 0.1692307692307692 0.1692307692307692 0.1769230769230769 0.1769230769230769 0.1846153846153846 0.1692307692307692 0.1692307692307692 0.1615384615384615 0.1615384615384615 0.1615384615384615 0.1692307692307692 0.1615384615384615 0.1692307692307692 0.1615384615384615 0.1692307692307692 0.1692307692307692 0.1692307692307692 0.1769230769230769 0.1846153846153846 0.1846153846153846 0.1846153846153846 0.1769230769230769 0.1923076923076923 0.1846153846153846 0.1769230769230769 0.1769230769230769 0.1846153846153846 0.1846153846153846 0.1846153846153846 0.1923076923076923 0.2076923076923077 0.2076923076923077 0.2 0.2076923076923077 0.2153846153846154 0.2153846153846154 0.2076923076923077 0.2 0.2076923076923077 0.2153846153846154 0.2230769230769231 0.2230769230769231 0.2230769230769231 0.2307692307692308 0.2384615384615385 0.2384615384615385 0.2384615384615385 0.2461538461538462 0.2461538461538462 0.2538461538461538 0.2461538461538462 0.2615384615384616 0.2615384615384616 0.2692307692307692 0.2692307692307692 0.2692307692307692 0.2769230769230769 0.2769230769230769 0.2846153846153846 0.2846153846153846 0.2846153846153846 0.2846153846153846 0.2923076923076923 0.3 0.3076923076923077 0.3 0.3076923076923077 0.3076923076923077 0.3076923076923077 0.3230769230769231 0.3153846153846154 0.3153846153846154 0.3076923076923077 0.3076923076923077 0.3 0.3076923076923077 0.3153846153846154 0.3076923076923077 0.3 0.2923076923076923 0.2846153846153846 0.2846153846153846 0.2769230769230769 0.2769230769230769 0.2692307692307692 0.2692307692307692 0.2692307692307692 0.2846153846153846 0.2692307692307692 0.2692307692307692 0.2769230769230769 0.2769230769230769 0.2615384615384616 0.2692307692307692 0.2615384615384616 0.2538461538461538 0.2538461538461538 0.2615384615384616 0.2538461538461538 0.2538461538461538 0.2538461538461538 0.2538461538461538 0.2538461538461538 0.2461538461538462 0.2384615384615385 0.2461538461538462 0.2461538461538462 0.2384615384615385 0.2384615384615385 0.2384615384615385 0.2230769230769231 0.2307692307692308 0.2384615384615385 0.2230769230769231 0.2153846153846154 0.2076923076923077 0.2230769230769231 0.2230769230769231 0.2076923076923077 0.2076923076923077 0.1923076923076923 0.1923076923076923 0.1923076923076923 0.1923076923076923 0.1846153846153846 0.1692307692307692 0.1769230769230769 0.1769230769230769 0.1692307692307692 0.1769230769230769 0.1846153846153846 0.1846153846153846 0.1769230769230769 0.1692307692307692 0.1769230769230769 0.1846153846153846 0.1769230769230769 0.1769230769230769 0.1923076923076923 0.1923076923076923 0.1769230769230769 0.1846153846153846 0.1923076923076923 0.1923076923076923 0.2 0.1923076923076923 0.1846153846153846 0.1923076923076923 0.2 0.2 0.1923076923076923 0.2 0.2076923076923077 0.2076923076923077 0.2 0.2 0.2076923076923077 0.2 0.2 0.2076923076923077 0.2 0.1923076923076923 0.1923076923076923 0.1846153846153846 0.1923076923076923 0.2076923076923077 0.1923076923076923 0.1923076923076923 0.1846153846153846 0.2 0.1923076923076923 0.2076923076923077 0.2076923076923077 0.2076923076923077 0.2 0.2 0.1923076923076923 0.2076923076923077 0.2076923076923077 0.1923076923076923 0.2076923076923077 0.2 0.1923076923076923 0.1923076923076923 0.2076923076923077 0.1923076923076923 0.1923076923076923 0.1923076923076923 0.1923076923076923 0.1923076923076923 0.1923076923076923 0.1923076923076923 0.1846153846153846 0.1846153846153846 0.1923076923076923 0.1923076923076923 0.1923076923076923 0.1846153846153846 0.1923076923076923 0.1846153846153846 0.1769230769230769 0.1923076923076923 0.1846153846153846 0.1769230769230769 0.1846153846153846 0.1846153846153846 0.1769230769230769 0.1846153846153846 0.1846153846153846 0.1769230769230769 0.1769230769230769 0.1769230769230769 0.1769230769230769 0.1923076923076923 0.1923076923076923 0.1846153846153846 0.1923076923076923 0.1846153846153846 0.1846153846153846 0.1923076923076923 0.2076923076923077 0.2153846153846154 0.2153846153846154 0.2076923076923077 0.2230769230769231 0.2307692307692308 0.2384615384615385 0.2461538461538462 0.2615384615384616 0.2923076923076923 0.3153846153846154 0.3230769230769231 0.3307692307692308 0.3538461538461539 0.3769230769230769 0.3923076923076923 0.4076923076923077 0.4230769230769231 0.4307692307692308 0.4538461538461538 0.4615384615384616 0.4769230769230769 0.4923076923076923 0.5076923076923077 0.5307692307692308 0.5461538461538461 0.5461538461538461 0.5692307692307692 0.5923076923076923 0.6076923076923076 0.6153846153846154 0.6538461538461539 0.6615384615384615 0.676923076923077 0.7076923076923077 0.7384615384615385 0.7461538461538462 0.7923076923076923 0.8307692307692308 0.8615384615384616 0.9076923076923077 0.9538461538461539 0.9846153846153847 1.015384615384615 1.038461538461539 1 0.9769230769230769 0.9692307692307692 0.9538461538461539 0.9307692307692308 0.9230769230769231 0.8923076923076924 0.8384615384615385 0.7923076923076923 0.7461538461538462 0.7076923076923077 0.6615384615384615 0.6 0.5538461538461539 0.5076923076923077 0.4615384615384616 0.4230769230769231 0.3615384615384615 0.3230769230769231 0.2846153846153846 0.2461538461538462 0.2230769230769231 0.2384615384615385 0.2307692307692308 0.2230769230769231 0.2307692307692308 0.2153846153846154 0.1923076923076923 0.2 0.2076923076923077 0.2 0.1923076923076923 0.1846153846153846 0.1769230769230769 0.1692307692307692 0.1538461538461539 0.1538461538461539 0.1538461538461539 0.1615384615384615 0.1538461538461539 0.1538461538461539 0.1461538461538462 0.1307692307692308 0.1461538461538462 0.1461538461538462 0.1384615384615385 0.1307692307692308 0.1384615384615385 0.1384615384615385 0.1307692307692308 0.1461538461538462 0.1461538461538462 0.1461538461538462 0.1461538461538462 0.1461538461538462 0.1153846153846154 0.1076923076923077 0.1230769230769231 0.1230769230769231 0.1076923076923077 0.1153846153846154 0.1230769230769231 0.1307692307692308 0.1307692307692308 0.1307692307692308 0.1230769230769231 0.1153846153846154 0.1076923076923077 0.1153846153846154 0.1 0.1 0.1076923076923077 0.1 0.09230769230769231 0.1 0.1153846153846154 0.1076923076923077 0.09230769230769231 0.09230769230769231 0.1 0.1076923076923077 0.1 0.08461538461538462 0.07692307692307693 0.08461538461538462 0.09230769230769231 0.09230769230769231 0.09230769230769231 0.08461538461538462 0.08461538461538462 0.08461538461538462 0.08461538461538462 0.07692307692307693 0.08461538461538462 0.08461538461538462 0.07692307692307693 0.07692307692307693 0.08461538461538462 0.09230769230769231 0.08461538461538462 0.07692307692307693 0.06153846153846154 0.07692307692307693 0.08461538461538462 0.09230769230769231 0.07692307692307693 0.07692307692307693 0.06923076923076923 0.06153846153846154 0.06153846153846154 0.06923076923076923 0.06923076923076923 0.06923076923076923 0.05384615384615385 0.04615384615384616 0.05384615384615385 0.05384615384615385 0.06153846153846154 0.05384615384615385 0.04615384615384616 0.04615384615384616 0.06153846153846154 0.06153846153846154 0.03846153846153846 0.03846153846153846 0.06153846153846154 0.05384615384615385 0.05384615384615385 0.06153846153846154 0.06153846153846154 0.05384615384615385 0.05384615384615385 0.04615384615384616 0.03846153846153846 0.03846153846153846 0.04615384615384616 0.05384615384615385 0.03846153846153846 0.03076923076923077 0.03846153846153846 0.05384615384615385 0.04615384615384616 0.04615384615384616 0.03076923076923077 0.03076923076923077 0.03846153846153846 0.03076923076923077 0.04615384615384616 0.03846153846153846 0.04615384615384616 0.05384615384615385 0.03846153846153846 0.03846153846153846 0.03846153846153846 0.04615384615384616 0.03076923076923077 0.02307692307692308 0.03076923076923077 0.04615384615384616 0.03076923076923077 0.02307692307692308 0.01538461538461539 0.02307692307692308 0.02307692307692308 0.007692307692307693 0.007692307692307693 0.007692307692307693 0 -0.01538461538461539 -0.007692307692307693 -0.01538461538461539 -0.02307692307692308 -0.03076923076923077 -0.02307692307692308 -0.02307692307692308 -0.03076923076923077 -0.03846153846153846 -0.03846153846153846 -0.03846153846153846 -0.04615384615384616 -0.05384615384615385 -0.05384615384615385 -0.04615384615384616 -0.03846153846153846 -0.04615384615384616 -0.04615384615384616 -0.05384615384615385 -0.04615384615384616 -0.03846153846153846 -0.03846153846153846 -0.03076923076923077 -0.02307692307692308 -0.03076923076923077 -0.03076923076923077 -0.02307692307692308 -0.02307692307692308 -0.02307692307692308 -0.01538461538461539 -0.01538461538461539 -0.03076923076923077 -0.01538461538461539 -0.01538461538461539 -0.007692307692307693 -0.007692307692307693 -0.01538461538461539 -0.007692307692307693 0.007692307692307693 0 0 0.01538461538461539 0.01538461538461539 0.007692307692307693 0.007692307692307693 0.03076923076923077 0.03846153846153846 0.02307692307692308 0.02307692307692308 0.03846153846153846 0.03076923076923077 0.02307692307692308 0.03846153846153846 0.04615384615384616 0.03846153846153846 0.04615384615384616 0.04615384615384616 0.05384615384615385 0.05384615384615385 0.05384615384615385 0.04615384615384616 0.05384615384615385 0.06153846153846154 0.06153846153846154 0.05384615384615385 0.06153846153846154 0.05384615384615385 0.05384615384615385 0.06923076923076923 0.06923076923076923 0.06153846153846154 0.06923076923076923 0.07692307692307693 0.07692307692307693 0.07692307692307693 0.07692307692307693 0.07692307692307693 0.09230769230769231 0.09230769230769231 0.1 0.1076923076923077 0.1 0.1076923076923077 0.1 0.1 0.1076923076923077 0.1153846153846154 0.1230769230769231 0.1153846153846154 0.1230769230769231 0.1230769230769231 0.1307692307692308 0.1230769230769231 0.1307692307692308 0.1384615384615385 0.1307692307692308 0.1307692307692308 0.1307692307692308 0.1307692307692308 0.1307692307692308 0.1307692307692308 0.1307692307692308 0.1384615384615385 0.1461538461538462 0.1538461538461539 0.1538461538461539 0.1538461538461539 0.1538461538461539 0.1538461538461539 0.1692307692307692 0.1692307692307692 0.1615384615384615 0.1769230769230769 0.1769230769230769 0.1769230769230769 0.1692307692307692 0.1692307692307692 0.1692307692307692 0.1615384615384615 0.1538461538461539 0.1692307692307692 0.1692307692307692 0.1692307692307692 0.1615384615384615 0.1769230769230769 0.1923076923076923 0.2 0.1923076923076923 0.1846153846153846 0.1846153846153846 0.1923076923076923 0.1846153846153846 0.1846153846153846 0.2 0.1923076923076923 0.1846153846153846 0.1846153846153846 0.1923076923076923 0.1923076923076923 0.1923076923076923 0.1923076923076923 0.1846153846153846 0.1923076923076923 0.1923076923076923 0.2 0.2076923076923077 0.2153846153846154 0.2076923076923077 0.2 0.2 0.2076923076923077 0.2 0.2 0.2 0.2 0.1846153846153846 0.1846153846153846 0.1923076923076923 0.2 0.2076923076923077 0.2153846153846154 0.2153846153846154 0.2153846153846154 0.2153846153846154 0.2153846153846154 0.2 0.2076923076923077 0.2153846153846154 0.2153846153846154 0.2153846153846154 0.2076923076923077 0.2076923076923077 0.2 0.2 0.2 0.2076923076923077 0.2153846153846154 0.2153846153846154 0.2076923076923077 0.2076923076923077 0.1923076923076923 0.1923076923076923 0.2 0.2076923076923077 0.2076923076923077 0.2 0.2076923076923077 0.2153846153846154 0.2 0.2 0.2076923076923077 0.2 0.2 0.2 0.1923076923076923 0.2 0.1923076923076923 0.1769230769230769 0.1769230769230769 0.1846153846153846 0.2 0.2 0.2 0.2076923076923077 0.2 0.1923076923076923 0.2076923076923077 0.2076923076923077 0.2 0.2 0.2153846153846154 0.2076923076923077 0.2076923076923077 0.2 0.2076923076923077 0.2076923076923077 0.2076923076923077 0.2076923076923077 0.2153846153846154 0.2153846153846154 0.2076923076923077 0.2153846153846154 0.2076923076923077 0.2153846153846154 0.2153846153846154 0.2076923076923077 0.2 0.2076923076923077 0.2153846153846154 0.2153846153846154 0.2076923076923077 0.2076923076923077 0.2153846153846154 0.2153846153846154 0.2230769230769231 0.2 0.2153846153846154 0.2153846153846154 0.2 0.2076923076923077 0.2153846153846154 0.2153846153846154 0.2230769230769231 0.2153846153846154 0.2153846153846154 0.2076923076923077 0.2153846153846154 0.2076923076923077 0.2076923076923077 0.2153846153846154 0.2076923076923077 0.2 0.2 0.2076923076923077 0.2076923076923077 0.2 0.2 0.2076923076923077 0.2 0.1923076923076923 0.1923076923076923 0.2 0.1846153846153846 0.1769230769230769 0.1846153846153846 0.1923076923076923 0.1923076923076923 0.1846153846153846 0.1846153846153846 0.1923076923076923 0.1846153846153846 0.1846153846153846 0.1846153846153846 0.1923076923076923 0.1846153846153846 0.1923076923076923 0.1769230769230769 0.1846153846153846 0.1923076923076923 0.1923076923076923 0.1923076923076923 0.1923076923076923 0.1846153846153846 0.1923076923076923 0.1923076923076923 0.1846153846153846 0.1846153846153846 0.1769230769230769 0.1846153846153846 0.1846153846153846 0.1846153846153846 0.1692307692307692 0.1846153846153846 0.1846153846153846 0.1846153846153846 0.1846153846153846 0.1923076923076923 0.2076923076923077 0.2 0.2076923076923077 0.2 0.1923076923076923 0.1923076923076923 0.2 0.1923076923076923 0.1846153846153846 0.1923076923076923 0.1923076923076923 0.1846153846153846 0.1923076923076923 0.1846153846153846 0.1769230769230769 0.1692307692307692 0.1769230769230769 0.1769230769230769 0.1846153846153846 0.1923076923076923 0.1846153846153846 0.1846153846153846 0.2 0.2 0.2 0.2 0.2 0.1923076923076923 0.1923076923076923 0.1923076923076923 0.2 0.1923076923076923 0.1846153846153846 0.1846153846153846 0.1769230769230769 0.1923076923076923 0.1846153846153846 0.1769230769230769 0.1846153846153846 0.1769230769230769 0.1846153846153846 0.1923076923076923 0.1923076923076923 0.1923076923076923 0.2 0.1923076923076923 0.2 0.2076923076923077 0.2076923076923077 0.1923076923076923 0.2 0.2 0.1923076923076923 0.1923076923076923 0.1923076923076923 0.1846153846153846 0.1769230769230769 0.1692307692307692 0.1846153846153846 0.1846153846153846 0.1769230769230769 0.1692307692307692 0.1615384615384615 0.1538461538461539 0.1692307692307692 0.1615384615384615 0.1692307692307692 0.1615384615384615 0.1615384615384615 0.1615384615384615 0.1615384615384615 0.1692307692307692 0.1692307692307692 0.1692307692307692 0.1615384615384615 0.1538461538461539 0.1769230769230769 0.1846153846153846 0.1538461538461539 0.1615384615384615 0.1769230769230769 0.1692307692307692 0.1769230769230769 0.1846153846153846 0.1769230769230769 0.1615384615384615 0.1615384615384615 0.1615384615384615 0.1615384615384615 0.1846153846153846 0.1692307692307692 0.1538461538461539 0.1692307692307692 0.1692307692307692 0.1692307692307692 0.1769230769230769 0.1769230769230769 0.1692307692307692 0.1615384615384615 0.1692307692307692 0.1769230769230769 0.1769230769230769 0.1769230769230769 0.1692307692307692 0.1692307692307692 0.1692307692307692 0.1692307692307692 0.1692307692307692 0.1769230769230769 0.1692307692307692 0.1538461538461539 0.1615384615384615 0.1692307692307692 0.1692307692307692 0.1769230769230769 0.1615384615384615 0.1615384615384615 0.1692307692307692 0.1692307692307692 0.1692307692307692 0.1692307692307692 0.1769230769230769 0.1692307692307692 0.1615384615384615 0.1692307692307692 0.1692307692307692 0.1615384615384615 0.1692307692307692 0.1538461538461539 0.1615384615384615 0.1692307692307692 0.1615384615384615 0.1692307692307692 0.1769230769230769 0.1692307692307692 0.1615384615384615 0.1692307692307692 0.1769230769230769 0.1615384615384615 0.1615384615384615 0.1692307692307692 0.1538461538461539 0.1615384615384615 0.1615384615384615 0.1538461538461539 0.1615384615384615 0.1615384615384615 0.1538461538461539 0.1615384615384615 0.1692307692307692 0.1769230769230769 0.1769230769230769 0.1769230769230769 0.1846153846153846 0.1846153846153846 0.1769230769230769 0.1692307692307692 0.1615384615384615 0.1615384615384615 0.1615384615384615 0.1615384615384615 0.1692307692307692 0.1615384615384615 0.1692307692307692 0.1615384615384615 0.1538461538461539 0.1615384615384615 0.1615384615384615 0.1615384615384615 0.1615384615384615 0.1615384615384615 0.1615384615384615 0.1769230769230769 0.1769230769230769 0.1692307692307692 0.1692307692307692 0.1692307692307692 0.1615384615384615 0.1615384615384615 0.1692307692307692 0.1692307692307692 0.1615384615384615 0.1615384615384615 0.1615384615384615 0.1615384615384615 0.1615384615384615 0.1692307692307692 0.1538461538461539 0.1538461538461539 0.1692307692307692 0.1692307692307692 0.1615384615384615 0.1692307692307692 0.1769230769230769 0.1692307692307692 0.1692307692307692 0.1692307692307692 0.1769230769230769 0.1692307692307692 0.1692307692307692 0.1615384615384615 0.1615384615384615 0.1538461538461539 0.1692307692307692 0.1538461538461539 0.1615384615384615 0.1538461538461539 0.1538461538461539 0.1538461538461539 0.1615384615384615 0.1538461538461539 0.1615384615384615 0.1692307692307692 0.1692307692307692 0.1615384615384615 0.1692307692307692 0.1692307692307692 0.1692307692307692 0.1615384615384615 0.1692307692307692 0.1769230769230769 0.1692307692307692 0.1692307692307692 0.1538461538461539 0.1615384615384615 0.1615384615384615 0.1538461538461539 0.1615384615384615 0.1692307692307692 0.1461538461538462 0.1538461538461539 0.1615384615384615 0.1615384615384615 0.1615384615384615 0.1692307692307692 0.1615384615384615 0.1615384615384615 0.1692307692307692 0.1615384615384615 0.1615384615384615 0.1692307692307692 0.1692307692307692 0.1692307692307692 0.1692307692307692 0.1692307692307692 0.1615384615384615 0.1615384615384615 0.1615384615384615 0.1615384615384615 0.1692307692307692 0.1615384615384615 0.1692307692307692 0.1615384615384615 0.1692307692307692 0.1769230769230769 0.1692307692307692 0.1615384615384615 0.1538461538461539 0.1615384615384615 0.1538461538461539 0.1615384615384615 0.1692307692307692 0.1769230769230769 0.1692307692307692 0.1769230769230769 0.1846153846153846 0.1923076923076923 0.1769230769230769 0.1846153846153846 0.1923076923076923 0.1846153846153846 0.1692307692307692 0.1769230769230769 0.1692307692307692 0.1692307692307692 0.1769230769230769 0.1692307692307692 0.1538461538461539 0.1615384615384615 0.1615384615384615 0.1538461538461539 0.1538461538461539 0.1615384615384615 0.1615384615384615 0.1615384615384615 0.1692307692307692 0.1615384615384615 0.1769230769230769 0.1692307692307692 0.1769230769230769 0.1692307692307692 0.1769230769230769 0.1769230769230769 0.1769230769230769 0.1692307692307692 0.1769230769230769 0.1692307692307692 0.1692307692307692 0.1769230769230769 0.1846153846153846 0.1846153846153846 0.1846153846153846 0.2 0.2 0.1923076923076923 0.2 0.2076923076923077 0.2 0.1846153846153846 0.1923076923076923 0.2 0.1846153846153846 0.1846153846153846 0.1769230769230769 0.1769230769230769 0.1692307692307692 0.1846153846153846 0.1846153846153846 0.1692307692307692 0.1692307692307692 0.1846153846153846 0.1846153846153846 0.1923076923076923 0.2 0.1923076923076923 0.1923076923076923 0.2 0.1923076923076923 0.1923076923076923 0.1923076923076923 0.1923076923076923 0.1923076923076923 0.2 0.2 0.1923076923076923 0.1846153846153846 0.1769230769230769 0.1615384615384615 0.1615384615384615 0.1692307692307692 0.1692307692307692 0.1615384615384615 0.1692307692307692 0.1769230769230769 0.1769230769230769 0.1692307692307692 0.1769230769230769 0.1769230769230769 0.1846153846153846 0.1769230769230769 0.1769230769230769 0.1692307692307692 0.1846153846153846 0.1846153846153846 0.1846153846153846 0.1769230769230769 0.1538461538461539 0.1692307692307692 0.1846153846153846 0.1692307692307692 0.1615384615384615 0.1692307692307692 0.1692307692307692 0.1615384615384615 0.1692307692307692 0.1769230769230769 0.1769230769230769 0.1846153846153846 0.1769230769230769 0.1769230769230769 0.1846153846153846 0.1846153846153846 0.1846153846153846 0.1846153846153846 0.1846153846153846 0.1846153846153846 0.1769230769230769 0.1769230769230769 0.1692307692307692 0.1692307692307692 0.1692307692307692 0.1692307692307692 0.1692307692307692 0.1769230769230769 0.1692307692307692 0.1769230769230769 0.1846153846153846 0.1923076923076923 0.1923076923076923 0.1923076923076923 0.2 0.1846153846153846 0.1923076923076923 0.2 0.2 0.1923076923076923 0.1923076923076923 0.1923076923076923 0.1692307692307692 0.1692307692307692 0.1769230769230769 0.1692307692307692 0.1769230769230769 0.1692307692307692 0.1615384615384615 0.1615384615384615 0.1615384615384615 0.1615384615384615 0.1692307692307692 0.1615384615384615 0.1769230769230769 0.1692307692307692 0.1846153846153846 0.1923076923076923 0.2076923076923077 0.2076923076923077 0.2 0.2076923076923077 0.2076923076923077 0.2153846153846154 0.2230769230769231 0.2230769230769231 0.2230769230769231 0.2307692307692308 0.2307692307692308 0.2307692307692308 0.2230769230769231 0.2153846153846154 0.2230769230769231 0.2230769230769231 0.2230769230769231 0.2230769230769231 0.2384615384615385 0.2307692307692308 0.2307692307692308 0.2384615384615385 0.2538461538461538 0.2384615384615385 0.2384615384615385 0.2461538461538462 0.2461538461538462 0.2384615384615385 0.2153846153846154 0.2153846153846154 0.2230769230769231 0.2076923076923077 0.2076923076923077 0.2 0.2076923076923077 0.2076923076923077 0.2 0.2153846153846154 0.2153846153846154 0.2 0.2076923076923077 0.2307692307692308 0.2076923076923077 0.2 0.2076923076923077 0.2076923076923077 0.2 0.2 0.1923076923076923 0.1923076923076923 0.2 0.2076923076923077 0.2076923076923077 0.2 0.2076923076923077 0.2076923076923077 0.2076923076923077 0.2153846153846154 0.2 0.1923076923076923 0.2 0.2 0.1923076923076923 0.2 0.2 0.1923076923076923 0.1923076923076923 0.1846153846153846 0.1846153846153846 0.2 0.2 0.1923076923076923 0.1923076923076923 0.1846153846153846 0.1846153846153846 0.1769230769230769 0.1846153846153846 0.1769230769230769 0.1769230769230769 0.1692307692307692 0.1692307692307692 0.1461538461538462 0.1538461538461539 0.1461538461538462 0.1615384615384615 0.1615384615384615 0.1538461538461539 0.1692307692307692 0.1769230769230769 0.1769230769230769 0.1769230769230769 0.1692307692307692 0.1769230769230769 0.1846153846153846 0.1769230769230769 0.1769230769230769 0.1846153846153846 0.1846153846153846 0.1769230769230769 0.1692307692307692 0.1769230769230769 0.1692307692307692 0.1692307692307692 0.1769230769230769 0.1769230769230769 0.1846153846153846 0.1769230769230769 0.1692307692307692 0.1615384615384615 0.1615384615384615 0.1692307692307692 0.1769230769230769 0.1769230769230769 0.1692307692307692 0.1615384615384615 0.1692307692307692 0.1692307692307692 0.1615384615384615 0.1692307692307692 0.1692307692307692 0.1615384615384615 0.1769230769230769 0.1923076923076923 0.2 0.2 0.2076923076923077 0.2153846153846154 0.2230769230769231 0.2384615384615385 0.2615384615384616 0.2846153846153846 0.3 0.3307692307692308 0.3538461538461539 0.3461538461538461 0.3461538461538461 0.3461538461538461 0.3538461538461539 0.3384615384615385 0.3384615384615385 0.3461538461538461 0.3307692307692308 0.3076923076923077 0.2692307692307692 0.2538461538461538 0.2384615384615385 0.2153846153846154 0.1923076923076923 0.1769230769230769 0.1692307692307692 0.1461538461538462 0.1153846153846154 0.1 0.08461538461538462 0.06923076923076923 0.06153846153846154 0.06923076923076923 0.06923076923076923 0.05384615384615385 0.06153846153846154 0.07692307692307693 0.08461538461538462 0.09230769230769231 0.1 0.09230769230769231 0.1 0.1076923076923077 0.1230769230769231 0.1307692307692308 0.1307692307692308 0.1384615384615385 0.1538461538461539 0.1461538461538462 0.1461538461538462 0.1615384615384615 0.1692307692307692 0.1692307692307692 0.1692307692307692 0.1769230769230769 0.1615384615384615 0.1615384615384615 0.1692307692307692 0.1384615384615385 0.1538461538461539 0.1692307692307692 0.1615384615384615 0.1538461538461539 0.1538461538461539 0.1384615384615385 0.1307692307692308 0.1461538461538462 0.1538461538461539 0.1538461538461539 0.1538461538461539 0.1615384615384615 0.1692307692307692 0.1846153846153846 0.1923076923076923 0.1846153846153846 0.1769230769230769 0.1769230769230769 0.1769230769230769 0.1692307692307692 0.1615384615384615 0.1538461538461539 0.1692307692307692 0.1538461538461539 0.1615384615384615 0.1692307692307692 0.1769230769230769 0.1692307692307692 0.1769230769230769 0.1769230769230769 0.1769230769230769 0.1846153846153846 0.1769230769230769 0.1769230769230769 0.1846153846153846 0.1846153846153846 0.1923076923076923 0.1923076923076923 0.1846153846153846 0.1846153846153846 0.1692307692307692 0.1692307692307692 0.1692307692307692 0.1615384615384615 0.1615384615384615 0.1615384615384615 0.1538461538461539 0.1461538461538462 0.1461538461538462 0.1461538461538462 0.1384615384615385 0.1384615384615385 0.1384615384615385 0.1384615384615385 0.1615384615384615 0.1769230769230769 0.1769230769230769 0.1846153846153846 0.1846153846153846 0.1846153846153846 0.1923076923076923 0.1769230769230769 0.1692307692307692 0.1769230769230769 0.1538461538461539 0.1461538461538462 0.1615384615384615 0.1692307692307692 0.1538461538461539 0.1615384615384615 0.1769230769230769 0.1615384615384615 0.1769230769230769 0.1846153846153846 0.1769230769230769 0.1846153846153846 0.1923076923076923 0.1769230769230769 0.1846153846153846 0.1923076923076923 0.1923076923076923 0.1846153846153846 0.1923076923076923 0.1923076923076923 0.1923076923076923 0.1846153846153846 0.1923076923076923 0.1846153846153846 0.1846153846153846 0.1846153846153846 0.1923076923076923 0.1923076923076923 0.1923076923076923 0.2 0.1923076923076923 0.1923076923076923 0.1923076923076923 0.1923076923076923 0.2 0.1923076923076923 0.1923076923076923 0.1923076923076923 0.1846153846153846 0.1923076923076923 0.2 0.1923076923076923 0.1923076923076923 0.2 0.1923076923076923 0.2 0.2 0.1923076923076923 0.2 0.2 0.2 0.2 0.2076923076923077 0.2153846153846154 0.2153846153846154 0.2230769230769231 0.2230769230769231 0.2153846153846154 0.2384615384615385 0.2384615384615385 0.2307692307692308 0.2230769230769231 0.2461538461538462 0.2307692307692308 0.2307692307692308 0.2307692307692308 0.2307692307692308 0.2230769230769231 0.2384615384615385 0.2461538461538462 0.2384615384615385 0.2384615384615385 0.2307692307692308 0.2230769230769231 0.2307692307692308 0.2384615384615385 0.2384615384615385 0.2384615384615385 0.2307692307692308 0.2384615384615385 0.2461538461538462 0.2538461538461538 0.2461538461538462 0.2538461538461538 0.2615384615384616 0.2461538461538462 0.2461538461538462 0.2615384615384616 0.2615384615384616 0.2538461538461538 0.2615384615384616 0.2538461538461538 0.2538461538461538 0.2538461538461538 0.2538461538461538 0.2615384615384616 0.2615384615384616 0.2615384615384616 0.2692307692307692 0.2769230769230769 0.2846153846153846 0.2769230769230769 0.2846153846153846 0.2846153846153846 0.2846153846153846 0.2923076923076923 0.2923076923076923 0.2923076923076923 0.2846153846153846 0.2769230769230769 0.2846153846153846 0.2846153846153846 0.2923076923076923 0.3 0.2923076923076923 0.2923076923076923 0.2923076923076923 0.3153846153846154 0.3153846153846154 0.3076923076923077 0.3076923076923077 0.3076923076923077 0.3 0.3 0.3076923076923077 0.3076923076923077 0.2846153846153846 0.2846153846153846 0.2923076923076923 0.3 0.2923076923076923 0.2769230769230769 0.2692307692307692 0.2846153846153846 0.2923076923076923 0.2769230769230769 0.2769230769230769 0.2692307692307692 0.2615384615384616 0.2615384615384616 0.2692307692307692 0.2615384615384616 0.2692307692307692 0.2692307692307692 0.2615384615384616 0.2384615384615385 0.2461538461538462 0.2538461538461538 0.2615384615384616 0.2615384615384616 0.2615384615384616 0.2615384615384616 0.2692307692307692 0.2692307692307692 0.2846153846153846 0.2769230769230769 0.2615384615384616 0.2538461538461538 0.2615384615384616 0.2538461538461538 0.2461538461538462 0.2461538461538462 0.2538461538461538 0.2461538461538462 0.2461538461538462 0.2538461538461538 0.2461538461538462 0.2384615384615385 0.2384615384615385 0.2307692307692308 0.2384615384615385 0.2461538461538462 0.2384615384615385 0.2307692307692308 0.2230769230769231 0.2230769230769231 0.2307692307692308 0.2307692307692308 0.2307692307692308 0.2230769230769231 0.2153846153846154 0.2153846153846154 0.2230769230769231 0.2153846153846154 0.2153846153846154 0.2 0.2 0.2076923076923077 0.2153846153846154 0.2076923076923077 0.2153846153846154 0.2153846153846154 0.2076923076923077 0.2076923076923077 0.2076923076923077 0.2076923076923077 0.2153846153846154 0.2076923076923077 0.1923076923076923 0.2076923076923077 0.2 0.1846153846153846 0.2 0.1923076923076923 0.1769230769230769 0.1846153846153846 0.1846153846153846 0.1846153846153846 0.1846153846153846 0.2 0.2 0.1923076923076923 0.1923076923076923 0.1923076923076923 0.2 0.2 0.1846153846153846 0.1846153846153846 0.1923076923076923 0.2 0.1923076923076923 0.2 0.2076923076923077 0.2153846153846154 0.2230769230769231 0.2230769230769231 0.2153846153846154 0.2230769230769231 0.2076923076923077 0.2076923076923077 0.2153846153846154 0.2076923076923077 0.1923076923076923 0.1846153846153846 0.1923076923076923 0.2 0.2076923076923077 0.2230769230769231 0.2307692307692308 0.2153846153846154 0.2230769230769231 0.2230769230769231 0.2307692307692308 0.2230769230769231 0.2230769230769231 0.2230769230769231 0.2230769230769231 0.2230769230769231 0.2230769230769231 0.2230769230769231 0.2307692307692308 0.2307692307692308 0.2307692307692308 0.2384615384615385 0.2384615384615385 0.2384615384615385 0.2307692307692308 0.2307692307692308 0.2307692307692308 0.2384615384615385 0.2307692307692308 0.2230769230769231 0.2230769230769231 0.2307692307692308 0.2230769230769231 0.2153846153846154 0.2230769230769231 0.2230769230769231 0.2230769230769231 0.2153846153846154 0.2153846153846154 0.2153846153846154 0.2153846153846154 0.2153846153846154 0.2 0.1923076923076923 0.1923076923076923 0.1923076923076923 0.1923076923076923 0.1923076923076923 0.1846153846153846 0.1769230769230769 0.1846153846153846 0.1846153846153846 0.1846153846153846 0.1923076923076923 0.2 0.1923076923076923 0.1846153846153846 0.1846153846153846 0.1923076923076923 0.1923076923076923 0.2 0.2 0.2076923076923077 0.2230769230769231 0.2230769230769231 0.2230769230769231 0.2153846153846154 0.2153846153846154 0.2076923076923077 0.2153846153846154 0.2153846153846154 0.2076923076923077 0.1923076923076923 0.1846153846153846 0.1923076923076923 0.1923076923076923 0.1923076923076923 0.1923076923076923 0.1923076923076923 0.1923076923076923 0.1923076923076923 0.1923076923076923 0.1923076923076923 0.2 0.2153846153846154 0.2 0.1923076923076923 0.2 0.2 0.1923076923076923 0.2 0.2 0.1769230769230769 0.1846153846153846 0.1846153846153846 0.1769230769230769 0.1846153846153846 0.1923076923076923 0.1846153846153846 0.1769230769230769 0.1923076923076923 0.1923076923076923 0.1846153846153846 0.1846153846153846 0.1846153846153846 0.1846153846153846 0.1923076923076923 0.1846153846153846 0.1846153846153846 0.1846153846153846 0.1846153846153846 0.1769230769230769 0.1846153846153846 0.1923076923076923 0.1846153846153846 0.1769230769230769 0.1769230769230769 0.1769230769230769 0.1846153846153846 0.1769230769230769 0.1846153846153846 0.1769230769230769 0.1769230769230769 0.1769230769230769 0.1769230769230769 0.1769230769230769 0.1769230769230769 0.1692307692307692 0.1615384615384615 0.1615384615384615 0.1615384615384615 0.1692307692307692 0.1692307692307692 0.1692307692307692 0.1769230769230769 0.1846153846153846 0.1846153846153846 0.1846153846153846 0.1846153846153846 0.1769230769230769 0.1692307692307692 0.1846153846153846 0.1846153846153846 0.1846153846153846 0.1769230769230769 0.1769230769230769 0.1846153846153846 0.1923076923076923 0.1923076923076923 0.2 0.1923076923076923 0.1923076923076923 0.1923076923076923 0.2 0.2 0.1923076923076923 0.1923076923076923 0.1923076923076923 0.1923076923076923 0.1846153846153846 0.1769230769230769 0.1846153846153846 0.1846153846153846 0.1692307692307692 0.1692307692307692 0.1846153846153846 0.1846153846153846 0.1846153846153846 0.2 0.2 0.2 0.2 0.2230769230769231 0.2384615384615385 0.2307692307692308 0.2384615384615385 0.2461538461538462 0.2461538461538462 0.2538461538461538 0.2461538461538462 0.2538461538461538 0.2384615384615385 0.2384615384615385 0.2461538461538462 0.2615384615384616 0.2692307692307692 0.2692307692307692 0.2692307692307692 0.2538461538461538 0.2538461538461538 0.2538461538461538 0.2538461538461538 0.2461538461538462 0.2461538461538462 0.2461538461538462 0.2461538461538462 0.2461538461538462 0.2384615384615385 0.2384615384615385 0.2307692307692308 0.2230769230769231 0.2153846153846154 0.2 0.1769230769230769 0.1615384615384615 0.1307692307692308 0.1153846153846154 0.1076923076923077 0.08461538461538462 0.07692307692307693 0.03846153846153846 0.007692307692307693 -0.03076923076923077 -0.05384615384615385 -0.06153846153846154 -0.1076923076923077 -0.1461538461538462 -0.1769230769230769 -0.2076923076923077 -0.2461538461538462 -0.2923076923076923 -0.3230769230769231 -0.3538461538461539 -0.3846153846153846 -0.3846153846153846 -0.3846153846153846 -0.3846153846153846 -0.3923076923076923 -0.3923076923076923 -0.4 -0.4 -0.3846153846153846 -0.3538461538461539 -0.3384615384615385 -0.3384615384615385 -0.3076923076923077 -0.2923076923076923 -0.2692307692307692 -0.2461538461538462 -0.2153846153846154 -0.1923076923076923 -0.1692307692307692 -0.1538461538461539 -0.1307692307692308 -0.1 -0.07692307692307693 -0.09230769230769231 -0.09230769230769231 -0.07692307692307693 -0.08461538461538462 -0.08461538461538462 -0.07692307692307693 -0.06923076923076923 -0.06923076923076923 -0.06923076923076923 -0.06923076923076923 -0.06923076923076923 -0.06153846153846154 -0.05384615384615385 -0.04615384615384616 -0.04615384615384616 -0.04615384615384616 -0.03076923076923077 -0.01538461538461539 -0.007692307692307693 0 0.007692307692307693 0.007692307692307693 0.01538461538461539 0.02307692307692308 0.02307692307692308 0.02307692307692308 0.03076923076923077 0.04615384615384616 0.05384615384615385 0.06153846153846154 0.06153846153846154 0.05384615384615385 0.06923076923076923 0.07692307692307693 0.09230769230769231 0.1076923076923077 0.1230769230769231 0.1307692307692308 0.1307692307692308 0.1461538461538462 0.1615384615384615 0.1769230769230769 0.1846153846153846 0.1846153846153846 0.1769230769230769 0.1769230769230769 0.1692307692307692 0.1692307692307692 0.1846153846153846 0.1692307692307692 0.1692307692307692 0.1846153846153846 0.2 0.1923076923076923 0.1923076923076923 0.2 0.2076923076923077 0.2 0.2 0.2 0.2076923076923077 0.2076923076923077 0.2076923076923077 0.2153846153846154 0.2153846153846154 0.2230769230769231 0.2230769230769231 0.2230769230769231 0.2230769230769231 0.2230769230769231 0.2230769230769231 0.2307692307692308 0.2384615384615385 0.2153846153846154 0.2076923076923077 0.2153846153846154 0.2153846153846154 0.2230769230769231 0.2230769230769231 0.2230769230769231 0.2230769230769231 0.2307692307692308 0.2384615384615385 0.2384615384615385 0.2384615384615385 0.2384615384615385 0.2307692307692308 0.2307692307692308 0.2307692307692308 0.2384615384615385 0.2384615384615385 0.2384615384615385 0.2384615384615385 0.2461538461538462 0.2538461538461538 0.2461538461538462 0.2538461538461538 0.2461538461538462 0.2461538461538462 0.2615384615384616 0.2692307692307692 0.2615384615384616 0.2692307692307692 0.2692307692307692 0.2692307692307692 0.2615384615384616 0.2615384615384616 0.2615384615384616 0.2769230769230769 0.2692307692307692 0.2769230769230769 0.2846153846153846 0.2769230769230769 0.2846153846153846 0.2923076923076923 0.2923076923076923 0.3 0.3 0.3 0.3 0.3076923076923077 0.3230769230769231 0.3076923076923077 0.3230769230769231 0.3230769230769231 0.3307692307692308 0.3461538461538461 0.3461538461538461 0.3461538461538461 0.3384615384615385 0.3538461538461539 0.3615384615384615 0.3461538461538461 0.3461538461538461 0.3538461538461539 0.3538461538461539 0.3384615384615385 0.3384615384615385 0.3615384615384615 0.3692307692307693 0.3615384615384615 0.3769230769230769 0.3769230769230769 0.3846153846153846 0.3923076923076923 0.4076923076923077 0.4307692307692308 0.4384615384615385 0.4615384615384616 0.4769230769230769 0.4846153846153846 0.4846153846153846 0.4923076923076923 0.5076923076923077 0.5153846153846153 0.5230769230769231 0.5307692307692308 0.5461538461538461 0.5538461538461539 0.5692307692307692 0.5769230769230769 0.6 0.6153846153846154 0.6307692307692307 0.6384615384615384 0.6461538461538462 0.6615384615384615 0.676923076923077 0.676923076923077 0.6923076923076923 0.7 0.7076923076923077 0.7076923076923077 0.7153846153846154 0.7153846153846154 0.7153846153846154 0.7153846153846154 0.7153846153846154 0.7153846153846154 0.7307692307692307 0.7384615384615385 0.7307692307692307 0.7307692307692307 0.7230769230769231 0.7230769230769231 0.7230769230769231 0.7230769230769231 0.7153846153846154 0.7153846153846154 0.7153846153846154 0.7153846153846154 0.7 0.7 0.6923076923076923 0.6923076923076923 0.6846153846153846 0.676923076923077 0.676923076923077 0.6615384615384615 0.6538461538461539 0.6461538461538462 0.6384615384615384 0.6307692307692307 0.6153846153846154 0.6076923076923076 0.6076923076923076 0.5769230769230769 0.5769230769230769 0.5769230769230769 0.5769230769230769 0.5615384615384615 0.5615384615384615 0.5615384615384615 0.5615384615384615 0.5461538461538461 0.5384615384615384 0.5538461538461539 0.5461538461538461 0.5230769230769231 0.5230769230769231 0.5307692307692308 0.5076923076923077 0.4923076923076923 0.4923076923076923 0.4846153846153846 0.4615384615384616 0.4692307692307692 0.4461538461538462 0.4307692307692308 0.4307692307692308 0.4230769230769231 0.4076923076923077 0.4076923076923077 0.4153846153846154 0.3923076923076923 0.3769230769230769 0.3923076923076923 0.3692307692307693 0.3538461538461539 0.3692307692307693 0.3692307692307693 0.3384615384615385 0.3307692307692308 0.3384615384615385 0.3384615384615385 0.3230769230769231 0.3307692307692308 0.3307692307692308 0.3307692307692308 0.3384615384615385 0.3230769230769231 0.3076923076923077 0.3076923076923077 0.3 0.2923076923076923 0.3 0.2846153846153846 0.2769230769230769 0.2769230769230769 0.2692307692307692 0.2769230769230769 0.2846153846153846 0.2923076923076923 0.2846153846153846 0.2769230769230769 0.2769230769230769 0.2615384615384616 0.2615384615384616 0.2692307692307692 0.2615384615384616 0.2615384615384616 0.2615384615384616 0.2692307692307692 0.2538461538461538 0.2538461538461538 0.2615384615384616 0.2538461538461538 0.2461538461538462 0.2461538461538462 0.2384615384615385 0.2461538461538462 0.2461538461538462 0.2384615384615385 0.2461538461538462 0.2384615384615385 0.2307692307692308 0.2384615384615385 0.2384615384615385 0.2307692307692308 0.2384615384615385 0.2384615384615385 0.2461538461538462 0.2461538461538462 0.2538461538461538 0.2461538461538462 0.2538461538461538 0.2615384615384616 0.2461538461538462 0.2538461538461538 0.2538461538461538 0.2384615384615385 0.2384615384615385 0.2384615384615385 0.2230769230769231 0.2230769230769231 0.2384615384615385 0.2384615384615385 0.2307692307692308 0.2230769230769231 0.2230769230769231 0.2230769230769231 0.2230769230769231 0.2307692307692308 0.2230769230769231 0.2153846153846154 0.2153846153846154 0.2153846153846154 0.2230769230769231 0.2307692307692308 0.2230769230769231 0.2230769230769231 0.2307692307692308 0.2384615384615385 0.2230769230769231 0.2307692307692308 0.2461538461538462 0.2230769230769231 0.2153846153846154 0.2230769230769231 0.2076923076923077 0.2076923076923077 0.2076923076923077 0.2076923076923077 0.2076923076923077 0.2076923076923077 0.2 0.1923076923076923 0.2 0.2076923076923077 0.2076923076923077 0.2076923076923077 0.2076923076923077 0.2230769230769231 0.2307692307692308 0.2230769230769231 0.2307692307692308 0.2230769230769231 0.2153846153846154 0.2076923076923077 0.2076923076923077 0.2076923076923077 0.2153846153846154 0.2076923076923077 0.2076923076923077 0.2153846153846154 0.2076923076923077 0.2076923076923077 0.2153846153846154 0.2153846153846154 0.2153846153846154 0.2076923076923077 0.1923076923076923 0.1846153846153846 0.2 0.1923076923076923 0.1846153846153846 0.1923076923076923 0.1846153846153846 0.1846153846153846 0.1769230769230769 0.1846153846153846 0.1692307692307692 0.1769230769230769 0.1769230769230769 0.1769230769230769 0.1769230769230769 0.1846153846153846 0.2 0.2 0.2 0.1923076923076923 0.2 0.2 0.1846153846153846 0.1923076923076923 0.2076923076923077 0.2153846153846154 0.2076923076923077 0.2 0.2076923076923077 0.2153846153846154 0.2076923076923077 0.2153846153846154 0.2076923076923077 0.2 0.2076923076923077 0.2076923076923077 0.1923076923076923 0.2 0.2 0.2 0.2 0.2 0.1846153846153846 0.1923076923076923 0.2 0.1923076923076923 0.1846153846153846 0.1923076923076923 0.1769230769230769 0.1692307692307692 0.1692307692307692 0.1692307692307692 0.1538461538461539 0.1538461538461539 0.1538461538461539 0.1538461538461539 0.1615384615384615 0.1538461538461539 0.1615384615384615 0.1692307692307692 0.1769230769230769 0.1769230769230769 0.1923076923076923 0.1846153846153846 0.1769230769230769 0.1769230769230769 0.1846153846153846 0.1846153846153846 0.1769230769230769 0.1846153846153846 0.1846153846153846 0.1769230769230769 0.1846153846153846 0.1923076923076923 0.1923076923076923 0.2076923076923077 0.2076923076923077 0.1923076923076923 0.1846153846153846 0.2 0.1923076923076923 0.1923076923076923 0.1923076923076923 0.1846153846153846 0.1846153846153846 0.1769230769230769 0.1846153846153846 0.1846153846153846 0.1923076923076923 0.1846153846153846 0.1769230769230769 0.1769230769230769 0.1846153846153846 0.1846153846153846 0.1923076923076923 0.1846153846153846 0.1769230769230769 0.1923076923076923 0.1846153846153846 0.1615384615384615 0.1692307692307692 0.1692307692307692 0.1615384615384615 0.1615384615384615 0.1615384615384615 0.1538461538461539 0.1615384615384615 0.1615384615384615 0.1615384615384615 0.1692307692307692 0.1846153846153846 0.1846153846153846 0.1923076923076923 0.1923076923076923 0.1846153846153846 0.1769230769230769 0.1846153846153846 0.2 0.1923076923076923 0.1846153846153846 0.1846153846153846 0.1769230769230769 0.1846153846153846 0.1846153846153846 0.1769230769230769 0.1923076923076923 0.2076923076923077 0.2 0.1846153846153846 0.2 0.2 0.1846153846153846 0.1846153846153846 0.1846153846153846 0.1692307692307692 0.1692307692307692 0.1692307692307692 0.1692307692307692 0.1615384615384615 0.1615384615384615 0.1615384615384615 0.1538461538461539 0.1615384615384615 0.1692307692307692 0.1615384615384615 0.1692307692307692 0.1692307692307692 0.1769230769230769 0.1769230769230769 0.1692307692307692 0.1538461538461539 0.1615384615384615 0.1769230769230769 0.1692307692307692 0.1692307692307692 0.1692307692307692 0.1615384615384615 0.1615384615384615 0.1615384615384615 0.1615384615384615 0.1615384615384615 0.1538461538461539 0.1615384615384615 0.1692307692307692 0.1615384615384615 0.1692307692307692 0.1769230769230769 0.1769230769230769 0.1692307692307692 0.1846153846153846 0.1769230769230769 0.1692307692307692 0.1692307692307692 0.1769230769230769 0.1769230769230769 0.1769230769230769 0.1846153846153846 0.1769230769230769 0.1769230769230769 0.1846153846153846 0.1769230769230769 0.1692307692307692 0.1692307692307692 0.1692307692307692 0.1692307692307692 0.1692307692307692 0.1769230769230769 0.1692307692307692 0.1769230769230769 0.1769230769230769 0.1769230769230769 0.1846153846153846 0.1846153846153846 0.1769230769230769 0.1769230769230769 0.1846153846153846 0.1769230769230769 0.1846153846153846 0.1923076923076923 0.1846153846153846 0.1769230769230769 0.1769230769230769 0.1846153846153846 0.1769230769230769 0.1615384615384615 0.1615384615384615 0.1538461538461539 0.1692307692307692 0.1615384615384615 0.1769230769230769 0.1769230769230769 0.1846153846153846 0.1846153846153846 0.1923076923076923 0.1923076923076923 0.1923076923076923 0.1846153846153846 0.1769230769230769 0.1769230769230769 0.1846153846153846 0.1769230769230769 0.1769230769230769 0.1692307692307692 0.1769230769230769 0.1769230769230769 0.1769230769230769 0.1769230769230769 0.1692307692307692 0.1615384615384615 0.1615384615384615 0.1692307692307692 0.1692307692307692 0.1692307692307692 0.1769230769230769 0.1846153846153846 0.1769230769230769 0.1846153846153846 0.1769230769230769 0.1846153846153846 0.1769230769230769 0.1692307692307692 0.1692307692307692 0.1846153846153846 0.1923076923076923 0.1846153846153846 0.1769230769230769 0.1846153846153846 0.1923076923076923 0.1846153846153846 0.1846153846153846 0.1923076923076923 0.1846153846153846 0.1846153846153846 0.1846153846153846 0.1846153846153846 0.1846153846153846 0.1846153846153846 0.1846153846153846 0.1846153846153846 0.1846153846153846 0.1923076923076923 0.1923076923076923 0.1923076923076923 0.1923076923076923 0.1769230769230769 0.1846153846153846 0.1846153846153846 0.1769230769230769 0.1846153846153846 0.1923076923076923 0.1846153846153846 0.1846153846153846 0.2 0.1923076923076923 0.1846153846153846 0.1846153846153846 0.1923076923076923 0.1846153846153846 0.1846153846153846 0.1846153846153846 0.1923076923076923 0.1923076923076923 0.1846153846153846 0.1923076923076923 0.1846153846153846 0.1846153846153846 0.1769230769230769 0.1769230769230769 0.1769230769230769 0.1692307692307692 0.1615384615384615 0.1692307692307692 0.1692307692307692 0.1846153846153846 0.1846153846153846 0.1846153846153846 0.1846153846153846 0.1923076923076923 0.1923076923076923 0.1923076923076923 0.1846153846153846 0.1923076923076923 0.1846153846153846 0.1923076923076923 0.1923076923076923 0.1846153846153846 0.1769230769230769 0.1846153846153846 0.1769230769230769 0.1692307692307692 0.1692307692307692 0.1769230769230769 0.1615384615384615 0.1538461538461539 0.1615384615384615 0.1692307692307692 0.1615384615384615 0.1615384615384615 0.1692307692307692 0.1615384615384615 0.1769230769230769 0.1692307692307692 0.1692307692307692 0.1769230769230769 0.1692307692307692 0.1692307692307692 0.1615384615384615 0.1692307692307692 0.1846153846153846 0.1769230769230769 0.1846153846153846 0.1846153846153846 0.1923076923076923 0.1846153846153846 0.1846153846153846 0.1923076923076923 0.1923076923076923 0.1923076923076923 0.1769230769230769 0.1923076923076923 0.2 