# Created by Octave 4.2.2, Thu Aug 08 18:43:06 2019 -03 <mauricio@mauricio-PC>
# name: ecg
# type: matrix
# rows: 1
# columns: 259200
 0.001469629492619954 0.02747351406239602 0.05564142243167841 0.08325792532593757 0.11107889927869 0.1388671008662667 0.166623823292275 0.1944550168205266 0.2221840388917183 0.2499787913177965 0.2777464920361042 0.305554535070948 0.333304245102049 0.3611356421051647 0.3888140839933514 0.416717964871234 0.4443631094443442 0.4722729529337779 0.4999091414143332 0.5278559829136299 0.5554466707985857 0.5834486994098148 0.6109572048502876 0.6390518103610048 0.6664675946473638 0.6946727852421694 0.7219468916584458 0.7503373909682395 0.7773487788043426 0.8061360723144909 0.8324973505329488 0.8622022826875819 0.86317805084187 0.832324072083735 0.8062061410569875 0.7773105411691248 0.7503643618887847 0.7219246905197254 0.6946883312379208 0.6664546335462732 0.6390640991163768 0.6109436048746172 0.5834798437474316 0.5554117997437362 0.5278939131656198 0.4998692069183255 0.4723135814864883 0.4443463415409278 0.4167393815264822 0.3887853467658453 0.3611747490101467 0.3332153064656515 0.3056526147445829 0.2776404173202801 0.250091641402675 0.2220653994405637 0.1945366489422597 0.1665224443830861 0.138996233281082 0.1109108386788522 0.08354108227122367 0.05527744892335396 0.02804064706515305 -0.0003947776595672044 -0.02738969912769832 -0.05612037743876164 -0.08256947228040884 -0.1122020652823586 -0.1132644893680207 -0.08232411441327329 -0.05629520358729598 -0.02711469824766568 -0.001883934342170171 0.0004899197541619776 -0.0003772878963434 0.0002441907851622432 -0.0002515556471318348 0.0001434369419946543 -0.0001354723317616484 8.650431520242937e-05 -0.0001167377604361233 5.439132210259467e-05 -0.0001052696105434539 7.510462935173634e-05 -9.309000310261947e-05 4.527159959303995e-05 -7.679313873520252e-05 2.334215450382547e-05 -3.707058754238936e-05 9.411391675453289e-06 -3.554580889129986e-05 3.363640729306995e-06 -3.024802124726266e-05 1.117386320434222e-05 -2.403930545265493e-05 1.19832728027682e-06 -4.815813329288998e-06 -3.615894269722791e-06 2.52250648664797e-07 -1.133290353465896e-05 1.005415421093501e-05 -1.801400337229688e-05 2.366076809497198e-05 -2.113538223151405e-05 2.815284845851261e-05 -2.495538748413049e-05 2.742995048800164e-05 -4.237616063695435e-05 3.920661013899807e-05 -5.5496586633303e-05 5.337002247515805e-05 -6.618310529497645e-05 5.885635274374585e-05 -7.937413235720308e-05 7.763029257612687e-05 -9.754304827672304e-05 0.00010612738965224 -0.0001398559365372266 0.0001483030037912285 -0.000187933299571411 0.0002185870263842057 -0.0002764947731503677 0.0003383370467956161 -0.0004233276595461328 0.006677385192167587 0.009901279564784191 0.014975793752999 0.02009779104833513 0.0233459254495731 0.03017735414822676 0.03188720414890607 0.04000573782780117 0.04073307148458154 0.04961107534031408 0.05381359302081292 0.05786893591107787 0.06350598199398438 0.06728499406993062 0.06971289315492106 0.07556506826224359 0.07985734881608632 0.08396464478918336 0.08991522375743559 0.09253231774136397 0.09607925253355151 0.101606164637297 0.1061570916255141 0.1087588969323062 0.1129880917759692 0.118983365057325 0.1219060855413766 0.1256649415720249 0.1289202550275272 0.1325920260576419 0.1358401603017706 0.1395924441586858 0.14271153292053 0.1466594874649385 0.1494449930349038 0.1540074120891869 0.1548496265095773 0.1575820963704336 0.1612351354312003 0.1649637544656399 0.165039119730805 0.1699309245259162 0.1696472939974338 0.1743049232356611 0.1747702629503139 0.1782520970554122 0.1802631762101868 0.1818318487616812 0.1862054223964043 0.183822768320696 0.1886399392537785 0.1900299327704413 0.1901823651475417 0.1895623089464032 0.1914612342311113 0.1954426273106974 0.1947596744735965 0.1951347801922487 0.1948756898362966 0.1950906444545136 0.1948900844451517 0.1950792138423721 0.1949041111483786 0.1950839520993045 0.1948934631985723 0.1950887977660712 0.1948687229592743 0.1951354574767818 0.1948213843536933 0.1952053361785056 0.1946884081405149 0.1954732098979203 0.1934798770590177 0.1895688367201414 0.190162407836801 0.1899126960637927 0.1899214331727637 0.1852149601015372 0.184962289178853 0.1846645253008446 0.1796148723756199 0.1803760974669626 0.1749160123464839 0.1755636064681373 0.1706755692115738 0.1703678260036306 0.1667842762814243 0.1648591170732063 0.1631578761217134 0.1588999251784692 0.1556287641695808 0.154606856644844 0.1514151400410917 0.1476014747705291 0.1444330621799569 0.1407152296062482 0.1374386514626616 0.1338137261467064 0.1304559836631032 0.1269365541888866 0.1233948473355717 0.1202037051167311 0.115795801536456 0.1097272092877456 0.1077169394047134 0.102979139948385 0.1008504349093027 0.09550916019852267 0.09047327822574586 0.08710745232083747 0.08058041138899436 0.07821909162049935 0.0712627215536062 0.06851885141406334 0.06492102360572258 0.06065367010873923 0.05449520294836299 0.05265286977313195 0.04317042313244335 0.04065925118949183 0.03528196751216947 0.03032190207319004 0.02693763279182287 0.02030816858415319 0.01823980551672906 0.01068970196160996 0.009124762017773394 0.001514058503836347 -0.0002165731534859675 5.172488406977384e-05 -2.907320891448004e-05 2.170734918307651e-06 -6.942629052497524e-06 -1.261748938608994e-05 1.051524332992631e-05 -1.807534346871907e-05 7.470075252393904e-06 -1.855712163715015e-05 2.869155434219397e-06 -7.291309250657568e-06 -3.795400732936895e-07 -9.387494449996907e-06 -1.472493850162281e-06 -1.13678279971617e-05 5.306958962170632e-06 -1.152897383594685e-05 1.554372076136075e-06 -9.787390527505631e-06 -1.363887041203215e-06 -3.069341646871124e-06 -2.894282718394645e-06 -4.30607856954151e-06 2.132063863351024e-06 -4.615136324294983e-06 -1.064544422442175e-07 -3.288180456919179e-06 -2.005871499329592e-06 5.84197857548594e-07 -2.554421879856519e-06 -1.258902032568753e-08 -1.991523192610944e-06 -2.449527296935226e-07 -2.492834193659536e-07 0 0 0 0 0 0 0 0 0 0 0 0 0 0 0 0 0 0 0 0 0 0 0 0 0 0 0 0 0 0 0 0 0 0 0 0 0 0 0 0 0 0 0 0 0 0 0 0 0 0 0 0 0 0 0 0 0 0 0 0 0 0 0 0 0 0 0 0 0 0 0 0 0 0 0 0 0 0 0 0 0 0 0 0 0 0 0 0 0 0 0 0 0 0 0 0 0 0 0 0 0 0 0 0 0 0 0 0 0 0 0 0 0 0 0 0 0 0 0 0 0 0 0 0 0 0 0 0 0 0 0 0 0 0 0 0 0 0 0 0 0 0 0 0 0 0 0 0 0 0 0 0 0 0 0 0 0 0 0 0 0 0 0 0 0 0 0 0 0 0 0 0 0 0 0 0 0 0 0 0 0 0 0 0 0 0 0 0 0 0 0 0 0 0 0 0 0 0 0 0 0 0 0 0 0 0 0 0 0 0 0 0 0 0 0 0 0 0 -2.501518985459699e-06 3.913670298724621e-07 -5.122365710373123e-06 -8.601404042854976e-06 -3.911806648749577e-06 -1.178657641261827e-05 1.127723355034824e-06 -1.046094365539038e-05 -2.048006917038257e-05 -4.050558802986214e-06 -2.153263840724352e-05 5.871506103898507e-06 -1.602959437311779e-05 -2.919852087071022e-05 -4.986199726630365e-06 -2.616804703259087e-05 -3.83120641656885e-05 -1.496632272268669e-05 -4.187662204890174e-05 1.789298229467847e-06 -3.510050008701473e-05 -4.532051273790043e-05 -1.960846647453584e-05 -4.401755665182732e-05 1.258440462360236e-07 -2.979987061140486e-05 -6.574125110518858e-05 -5.339256080791267e-06 -6.44300911094791e-05 2.519008797327382e-05 -5.442964263913943e-05 -3.93215340002322e-05 -5.345274450981009e-05 4.231103762381613e-05 -0.0003127216231461197 0.001469629492619954 0.02747351406239602 0.05564142243167841 0.08325792532593757 0.11107889927869 0.1388671008662667 0.166623823292275 0.1944550168205266 0.2221840388917183 0.2499787913177965 0.2777464920361042 0.305554535070948 0.333304245102049 0.3611356421051647 0.3888140839933514 0.416717964871234 0.4443631094443442 0.4722729529337779 0.4999091414143332 0.5278559829136299 0.5554466707985857 0.5834486994098148 0.6109572048502876 0.6390518103610048 0.6664675946473638 0.6946727852421694 0.7219468916584458 0.7503373909682395 0.7773487788043426 0.8061360723144909 0.8324973505329488 0.8622022826875819 0.86317805084187 0.832324072083735 0.8062061410569875 0.7773105411691248 0.7503643618887847 0.7219246905197254 0.6946883312379208 0.6664546335462732 0.6390640991163768 0.6109436048746172 0.5834798437474316 0.5554117997437362 0.5278939131656198 0.4998692069183255 0.4723135814864883 0.4443463415409278 0.4167393815264822 0.3887853467658453 0.3611747490101467 0.3332153064656515 0.3056526147445829 0.2776404173202801 0.250091641402675 0.2220653994405637 0.1945366489422597 0.1665224443830861 0.138996233281082 0.1109108386788522 0.08354108227122367 0.05527744892335396 0.02804064706515305 -0.0003947776595672044 -0.02738969912769832 -0.05612037743876164 -0.08256947228040884 -0.1122020652823586 -0.1132644893680207 -0.08232411441327329 -0.05629520358729598 -0.02711469824766568 -0.001883934342170171 0.0004899197541619776 -0.0003772878963434 0.0002441907851622432 -0.0002515556471318348 0.0001434369419946543 -0.0001354723317616484 8.650431520242937e-05 -0.0001167377604361233 5.439132210259467e-05 -0.0001052696105434539 7.510462935173634e-05 -9.309000310261947e-05 4.527159959303995e-05 -7.679313873520252e-05 2.334215450382547e-05 -3.707058754238936e-05 9.411391675453289e-06 -3.554580889129986e-05 3.363640729306995e-06 -3.024802124726266e-05 1.117386320434222e-05 -2.403930545265493e-05 1.19832728027682e-06 -4.815813329288998e-06 -3.615894269722791e-06 2.52250648664797e-07 -1.133290353465896e-05 1.005415421093501e-05 -1.801400337229688e-05 2.366076809497198e-05 -2.113538223151405e-05 2.815284845851261e-05 -2.495538748413049e-05 2.742995048800164e-05 -4.237616063695435e-05 3.920661013899807e-05 -5.5496586633303e-05 5.337002247515805e-05 -6.618310529497645e-05 5.885635274374585e-05 -7.937413235720308e-05 7.763029257612687e-05 -9.754304827672304e-05 0.00010612738965224 -0.0001398559365372266 0.0001483030037912285 -0.000187933299571411 0.0002185870263842057 -0.0002764947731503677 0.0003383370467956161 -0.0004233276595461328 0.006677385192167587 0.009901279564784191 0.014975793752999 0.02009779104833513 0.0233459254495731 0.03017735414822676 0.03188720414890607 0.04000573782780117 0.04073307148458154 0.04961107534031408 0.05381359302081292 0.05786893591107787 0.06350598199398438 0.06728499406993062 0.06971289315492106 0.07556506826224359 0.07985734881608632 0.08396464478918336 0.08991522375743559 0.09253231774136397 0.09607925253355151 0.101606164637297 0.1061570916255141 0.1087588969323062 0.1129880917759692 0.118983365057325 0.1219060855413766 0.1256649415720249 0.1289202550275272 0.1325920260576419 0.1358401603017706 0.1395924441586858 0.14271153292053 0.1466594874649385 0.1494449930349038 0.1540074120891869 0.1548496265095773 0.1575820963704336 0.1612351354312003 0.1649637544656399 0.165039119730805 0.1699309245259162 0.1696472939974338 0.1743049232356611 0.1747702629503139 0.1782520970554122 0.1802631762101868 0.1818318487616812 0.1862054223964043 0.183822768320696 0.1886399392537785 0.1900299327704413 0.1901823651475417 0.1895623089464032 0.1914612342311113 0.1954426273106974 0.1947596744735965 0.1951347801922487 0.1948756898362966 0.1950906444545136 0.1948900844451517 0.1950792138423721 0.1949041111483786 0.1950839520993045 0.1948934631985723 0.1950887977660712 0.1948687229592743 0.1951354574767818 0.1948213843536933 0.1952053361785056 0.1946884081405149 0.1954732098979203 0.1934798770590177 0.1895688367201414 0.190162407836801 0.1899126960637927 0.1899214331727637 0.1852149601015372 0.184962289178853 0.1846645253008446 0.1796148723756199 0.1803760974669626 0.1749160123464839 0.1755636064681373 0.1706755692115738 0.1703678260036306 0.1667842762814243 0.1648591170732063 0.1631578761217134 0.1588999251784692 0.1556287641695808 0.154606856644844 0.1514151400410917 0.1476014747705291 0.1444330621799569 0.1407152296062482 0.1374386514626616 0.1338137261467064 0.1304559836631032 0.1269365541888866 0.1233948473355717 0.1202037051167311 0.115795801536456 0.1097272092877456 0.1077169394047134 0.102979139948385 0.1008504349093027 0.09550916019852267 0.09047327822574586 0.08710745232083747 0.08058041138899436 0.07821909162049935 0.0712627215536062 0.06851885141406334 0.06492102360572258 0.06065367010873923 0.05449520294836299 0.05265286977313195 0.04317042313244335 0.04065925118949183 0.03528196751216947 0.03032190207319004 0.02693763279182287 0.02030816858415319 0.01823980551672906 0.01068970196160996 0.009124762017773394 0.001514058503836347 -0.0002165731534859675 5.172488406977384e-05 -2.907320891448004e-05 2.170734918307651e-06 -6.942629052497524e-06 -1.261748938608994e-05 1.051524332992631e-05 -1.807534346871907e-05 7.470075252393904e-06 -1.855712163715015e-05 2.869155434219397e-06 -7.291309250657568e-06 -3.795400732936895e-07 -9.387494449996907e-06 -1.472493850162281e-06 -1.13678279971617e-05 5.306958962170632e-06 -1.152897383594685e-05 1.554372076136075e-06 -9.787390527505631e-06 -1.363887041203215e-06 -3.069341646871124e-06 -2.894282718394645e-06 -4.30607856954151e-06 2.132063863351024e-06 -4.615136324294983e-06 -1.064544422442175e-07 -3.288180456919179e-06 -2.005871499329592e-06 5.84197857548594e-07 -2.554421879856519e-06 -1.258902032568753e-08 -1.991523192610944e-06 -2.449527296935226e-07 -2.492834193659536e-07 0 0 0 0 0 0 0 0 0 0 0 0 0 0 0 0 0 0 0 0 0 0 0 0 0 0 0 0 0 0 0 0 0 0 0 0 0 0 0 0 0 0 0 0 0 0 0 0 0 0 0 0 0 0 0 0 0 0 0 0 0 0 0 0 0 0 0 0 0 0 0 0 0 0 0 0 0 0 0 0 0 0 0 0 0 0 0 0 0 0 0 0 0 0 0 0 0 0 0 0 0 0 0 0 0 0 0 0 0 0 0 0 0 0 0 0 0 0 0 0 0 0 0 0 0 0 0 0 0 0 0 0 0 0 0 0 0 0 0 0 0 0 0 0 0 0 0 0 0 0 0 0 0 0 0 0 0 0 0 0 0 0 0 0 0 0 0 0 0 0 0 0 0 0 0 0 0 0 0 0 0 0 0 0 0 0 0 0 0 0 0 0 0 0 0 0 0 0 0 0 0 0 0 0 0 0 0 0 0 0 0 0 0 0 0 0 0 0 -2.501518985459699e-06 3.913670298724621e-07 -5.122365710373123e-06 -8.601404042854976e-06 -3.911806648749577e-06 -1.178657641261827e-05 1.127723355034824e-06 -1.046094365539038e-05 -2.048006917038257e-05 -4.050558802986214e-06 -2.153263840724352e-05 5.871506103898507e-06 -1.602959437311779e-05 -2.919852087071022e-05 -4.986199726630365e-06 -2.616804703259087e-05 -3.83120641656885e-05 -1.496632272268669e-05 -4.187662204890174e-05 1.789298229467847e-06 -3.510050008701473e-05 -4.532051273790043e-05 -1.960846647453584e-05 -4.401755665182732e-05 1.258440462360236e-07 -2.979987061140486e-05 -6.574125110518858e-05 -5.339256080791267e-06 -6.44300911094791e-05 2.519008797327382e-05 -5.442964263913943e-05 -3.93215340002322e-05 -5.345274450981009e-05 4.231103762381613e-05 -0.0003127216231461197 0.001469629492619954 0.02747351406239602 0.05564142243167841 0.08325792532593757 0.11107889927869 0.1388671008662667 0.166623823292275 0.1944550168205266 0.2221840388917183 0.2499787913177965 0.2777464920361042 0.305554535070948 0.333304245102049 0.3611356421051647 0.3888140839933514 0.416717964871234 0.4443631094443442 0.4722729529337779 0.4999091414143332 0.5278559829136299 0.5554466707985857 0.5834486994098148 0.6109572048502876 0.6390518103610048 0.6664675946473638 0.6946727852421694 0.7219468916584458 0.7503373909682395 0.7773487788043426 0.8061360723144909 0.8324973505329488 0.8622022826875819 0.86317805084187 0.832324072083735 0.8062061410569875 0.7773105411691248 0.7503643618887847 0.7219246905197254 0.6946883312379208 0.6664546335462732 0.6390640991163768 0.6109436048746172 0.5834798437474316 0.5554117997437362 0.5278939131656198 0.4998692069183255 0.4723135814864883 0.4443463415409278 0.4167393815264822 0.3887853467658453 0.3611747490101467 0.3332153064656515 0.3056526147445829 0.2776404173202801 0.250091641402675 0.2220653994405637 0.1945366489422597 0.1665224443830861 0.138996233281082 0.1109108386788522 0.08354108227122367 0.05527744892335396 0.02804064706515305 -0.0003947776595672044 -0.02738969912769832 -0.05612037743876164 -0.08256947228040884 -0.1122020652823586 -0.1132644893680207 -0.08232411441327329 -0.05629520358729598 -0.02711469824766568 -0.001883934342170171 0.0004899197541619776 -0.0003772878963434 0.0002441907851622432 -0.0002515556471318348 0.0001434369419946543 -0.0001354723317616484 8.650431520242937e-05 -0.0001167377604361233 5.439132210259467e-05 -0.0001052696105434539 7.510462935173634e-05 -9.309000310261947e-05 4.527159959303995e-05 -7.679313873520252e-05 2.334215450382547e-05 -3.707058754238936e-05 9.411391675453289e-06 -3.554580889129986e-05 3.363640729306995e-06 -3.024802124726266e-05 1.117386320434222e-05 -2.403930545265493e-05 1.19832728027682e-06 -4.815813329288998e-06 -3.615894269722791e-06 2.52250648664797e-07 -1.133290353465896e-05 1.005415421093501e-05 -1.801400337229688e-05 2.366076809497198e-05 -2.113538223151405e-05 2.815284845851261e-05 -2.495538748413049e-05 2.742995048800164e-05 -4.237616063695435e-05 3.920661013899807e-05 -5.5496586633303e-05 5.337002247515805e-05 -6.618310529497645e-05 5.885635274374585e-05 -7.937413235720308e-05 7.763029257612687e-05 -9.754304827672304e-05 0.00010612738965224 -0.0001398559365372266 0.0001483030037912285 -0.000187933299571411 0.0002185870263842057 -0.0002764947731503677 0.0003383370467956161 -0.0004233276595461328 0.006677385192167587 0.009901279564784191 0.014975793752999 0.02009779104833513 0.0233459254495731 0.03017735414822676 0.03188720414890607 0.04000573782780117 0.04073307148458154 0.04961107534031408 0.05381359302081292 0.05786893591107787 0.06350598199398438 0.06728499406993062 0.06971289315492106 0.07556506826224359 0.07985734881608632 0.08396464478918336 0.08991522375743559 0.09253231774136397 0.09607925253355151 0.101606164637297 0.1061570916255141 0.1087588969323062 0.1129880917759692 0.118983365057325 0.1219060855413766 0.1256649415720249 0.1289202550275272 0.1325920260576419 0.1358401603017706 0.1395924441586858 0.14271153292053 0.1466594874649385 0.1494449930349038 0.1540074120891869 0.1548496265095773 0.1575820963704336 0.1612351354312003 0.1649637544656399 0.165039119730805 0.1699309245259162 0.1696472939974338 0.1743049232356611 0.1747702629503139 0.1782520970554122 0.1802631762101868 0.1818318487616812 0.1862054223964043 0.183822768320696 0.1886399392537785 0.1900299327704413 0.1901823651475417 0.1895623089464032 0.1914612342311113 0.1954426273106974 0.1947596744735965 0.1951347801922487 0.1948756898362966 0.1950906444545136 0.1948900844451517 0.1950792138423721 0.1949041111483786 0.1950839520993045 0.1948934631985723 0.1950887977660712 0.1948687229592743 0.1951354574767818 0.1948213843536933 0.1952053361785056 0.1946884081405149 0.1954732098979203 0.1934798770590177 0.1895688367201414 0.190162407836801 0.1899126960637927 0.1899214331727637 0.1852149601015372 0.184962289178853 0.1846645253008446 0.1796148723756199 0.1803760974669626 0.1749160123464839 0.1755636064681373 0.1706755692115738 0.1703678260036306 0.1667842762814243 0.1648591170732063 0.1631578761217134 0.1588999251784692 0.1556287641695808 0.154606856644844 0.1514151400410917 0.1476014747705291 0.1444330621799569 0.1407152296062482 0.1374386514626616 0.1338137261467064 0.1304559836631032 0.1269365541888866 0.1233948473355717 0.1202037051167311 0.115795801536456 0.1097272092877456 0.1077169394047134 0.102979139948385 0.1008504349093027 0.09550916019852267 0.09047327822574586 0.08710745232083747 0.08058041138899436 0.07821909162049935 0.0712627215536062 0.06851885141406334 0.06492102360572258 0.06065367010873923 0.05449520294836299 0.05265286977313195 0.04317042313244335 0.04065925118949183 0.03528196751216947 0.03032190207319004 0.02693763279182287 0.02030816858415319 0.01823980551672906 0.01068970196160996 0.009124762017773394 0.001514058503836347 -0.0002165731534859675 5.172488406977384e-05 -2.907320891448004e-05 2.170734918307651e-06 -6.942629052497524e-06 -1.261748938608994e-05 1.051524332992631e-05 -1.807534346871907e-05 7.470075252393904e-06 -1.855712163715015e-05 2.869155434219397e-06 -7.291309250657568e-06 -3.795400732936895e-07 -9.387494449996907e-06 -1.472493850162281e-06 -1.13678279971617e-05 5.306958962170632e-06 -1.152897383594685e-05 1.554372076136075e-06 -9.787390527505631e-06 -1.363887041203215e-06 -3.069341646871124e-06 -2.894282718394645e-06 -4.30607856954151e-06 2.132063863351024e-06 -4.615136324294983e-06 -1.064544422442175e-07 -3.288180456919179e-06 -2.005871499329592e-06 5.84197857548594e-07 -2.554421879856519e-06 -1.258902032568753e-08 -1.991523192610944e-06 -2.449527296935226e-07 -2.492834193659536e-07 0 0 0 0 0 0 0 0 0 0 0 0 0 0 0 0 0 0 0 0 0 0 0 0 0 0 0 0 0 0 0 0 0 0 0 0 0 0 0 0 0 0 0 0 0 0 0 0 0 0 0 0 0 0 0 0 0 0 0 0 0 0 0 0 0 0 0 0 0 0 0 0 0 0 0 0 0 0 0 0 0 0 0 0 0 0 0 0 0 0 0 0 0 0 0 0 0 0 0 0 0 0 0 0 0 0 0 0 0 0 0 0 0 0 0 0 0 0 0 0 0 0 0 0 0 0 0 0 0 0 0 0 0 0 0 0 0 0 0 0 0 0 0 0 0 0 0 0 0 0 0 0 0 0 0 0 0 0 0 0 0 0 0 0 0 0 0 0 0 0 0 0 0 0 0 0 0 0 0 0 0 0 0 0 0 0 0 0 0 0 0 0 0 0 0 0 0 0 0 0 0 0 0 0 0 0 0 0 0 0 0 0 0 0 0 0 0 0 -2.501518985459699e-06 3.913670298724621e-07 -5.122365710373123e-06 -8.601404042854976e-06 -3.911806648749577e-06 -1.178657641261827e-05 1.127723355034824e-06 -1.046094365539038e-05 -2.048006917038257e-05 -4.050558802986214e-06 -2.153263840724352e-05 5.871506103898507e-06 -1.602959437311779e-05 -2.919852087071022e-05 -4.986199726630365e-06 -2.616804703259087e-05 -3.83120641656885e-05 -1.496632272268669e-05 -4.187662204890174e-05 1.789298229467847e-06 -3.510050008701473e-05 -4.532051273790043e-05 -1.960846647453584e-05 -4.401755665182732e-05 1.258440462360236e-07 -2.979987061140486e-05 -6.574125110518858e-05 -5.339256080791267e-06 -6.44300911094791e-05 2.519008797327382e-05 -5.442964263913943e-05 -3.93215340002322e-05 -5.345274450981009e-05 4.231103762381613e-05 -0.0003127216231461197 0.001469629492619954 0.02747351406239602 0.05564142243167841 0.08325792532593757 0.11107889927869 0.1388671008662667 0.166623823292275 0.1944550168205266 0.2221840388917183 0.2499787913177965 0.2777464920361042 0.305554535070948 0.333304245102049 0.3611356421051647 0.3888140839933514 0.416717964871234 0.4443631094443442 0.4722729529337779 0.4999091414143332 0.5278559829136299 0.5554466707985857 0.5834486994098148 0.6109572048502876 0.6390518103610048 0.6664675946473638 0.6946727852421694 0.7219468916584458 0.7503373909682395 0.7773487788043426 0.8061360723144909 0.8324973505329488 0.8622022826875819 0.86317805084187 0.832324072083735 0.8062061410569875 0.7773105411691248 0.7503643618887847 0.7219246905197254 0.6946883312379208 0.6664546335462732 0.6390640991163768 0.6109436048746172 0.5834798437474316 0.5554117997437362 0.5278939131656198 0.4998692069183255 0.4723135814864883 0.4443463415409278 0.4167393815264822 0.3887853467658453 0.3611747490101467 0.3332153064656515 0.3056526147445829 0.2776404173202801 0.250091641402675 0.2220653994405637 0.1945366489422597 0.1665224443830861 0.138996233281082 0.1109108386788522 0.08354108227122367 0.05527744892335396 0.02804064706515305 -0.0003947776595672044 -0.02738969912769832 -0.05612037743876164 -0.08256947228040884 -0.1122020652823586 -0.1132644893680207 -0.08232411441327329 -0.05629520358729598 -0.02711469824766568 -0.001883934342170171 0.0004899197541619776 -0.0003772878963434 0.0002441907851622432 -0.0002515556471318348 0.0001434369419946543 -0.0001354723317616484 8.650431520242937e-05 -0.0001167377604361233 5.439132210259467e-05 -0.0001052696105434539 7.510462935173634e-05 -9.309000310261947e-05 4.527159959303995e-05 -7.679313873520252e-05 2.334215450382547e-05 -3.707058754238936e-05 9.411391675453289e-06 -3.554580889129986e-05 3.363640729306995e-06 -3.024802124726266e-05 1.117386320434222e-05 -2.403930545265493e-05 1.19832728027682e-06 -4.815813329288998e-06 -3.615894269722791e-06 2.52250648664797e-07 -1.133290353465896e-05 1.005415421093501e-05 -1.801400337229688e-05 2.366076809497198e-05 -2.113538223151405e-05 2.815284845851261e-05 -2.495538748413049e-05 2.742995048800164e-05 -4.237616063695435e-05 3.920661013899807e-05 -5.5496586633303e-05 5.337002247515805e-05 -6.618310529497645e-05 5.885635274374585e-05 -7.937413235720308e-05 7.763029257612687e-05 -9.754304827672304e-05 0.00010612738965224 -0.0001398559365372266 0.0001483030037912285 -0.000187933299571411 0.0002185870263842057 -0.0002764947731503677 0.0003383370467956161 -0.0004233276595461328 0.006677385192167587 0.009901279564784191 0.014975793752999 0.02009779104833513 0.0233459254495731 0.03017735414822676 0.03188720414890607 0.04000573782780117 0.04073307148458154 0.04961107534031408 0.05381359302081292 0.05786893591107787 0.06350598199398438 0.06728499406993062 0.06971289315492106 0.07556506826224359 0.07985734881608632 0.08396464478918336 0.08991522375743559 0.09253231774136397 0.09607925253355151 0.101606164637297 0.1061570916255141 0.1087588969323062 0.1129880917759692 0.118983365057325 0.1219060855413766 0.1256649415720249 0.1289202550275272 0.1325920260576419 0.1358401603017706 0.1395924441586858 0.14271153292053 0.1466594874649385 0.1494449930349038 0.1540074120891869 0.1548496265095773 0.1575820963704336 0.1612351354312003 0.1649637544656399 0.165039119730805 0.1699309245259162 0.1696472939974338 0.1743049232356611 0.1747702629503139 0.1782520970554122 0.1802631762101868 0.1818318487616812 0.1862054223964043 0.183822768320696 0.1886399392537785 0.1900299327704413 0.1901823651475417 0.1895623089464032 0.1914612342311113 0.1954426273106974 0.1947596744735965 0.1951347801922487 0.1948756898362966 0.1950906444545136 0.1948900844451517 0.1950792138423721 0.1949041111483786 0.1950839520993045 0.1948934631985723 0.1950887977660712 0.1948687229592743 0.1951354574767818 0.1948213843536933 0.1952053361785056 0.1946884081405149 0.1954732098979203 0.1934798770590177 0.1895688367201414 0.190162407836801 0.1899126960637927 0.1899214331727637 0.1852149601015372 0.184962289178853 0.1846645253008446 0.1796148723756199 0.1803760974669626 0.1749160123464839 0.1755636064681373 0.1706755692115738 0.1703678260036306 0.1667842762814243 0.1648591170732063 0.1631578761217134 0.1588999251784692 0.1556287641695808 0.154606856644844 0.1514151400410917 0.1476014747705291 0.1444330621799569 0.1407152296062482 0.1374386514626616 0.1338137261467064 0.1304559836631032 0.1269365541888866 0.1233948473355717 0.1202037051167311 0.115795801536456 0.1097272092877456 0.1077169394047134 0.102979139948385 0.1008504349093027 0.09550916019852267 0.09047327822574586 0.08710745232083747 0.08058041138899436 0.07821909162049935 0.0712627215536062 0.06851885141406334 0.06492102360572258 0.06065367010873923 0.05449520294836299 0.05265286977313195 0.04317042313244335 0.04065925118949183 0.03528196751216947 0.03032190207319004 0.02693763279182287 0.02030816858415319 0.01823980551672906 0.01068970196160996 0.009124762017773394 0.001514058503836347 -0.0002165731534859675 5.172488406977384e-05 -2.907320891448004e-05 2.170734918307651e-06 -6.942629052497524e-06 -1.261748938608994e-05 1.051524332992631e-05 -1.807534346871907e-05 7.470075252393904e-06 -1.855712163715015e-05 2.869155434219397e-06 -7.291309250657568e-06 -3.795400732936895e-07 -9.387494449996907e-06 -1.472493850162281e-06 -1.13678279971617e-05 5.306958962170632e-06 -1.152897383594685e-05 1.554372076136075e-06 -9.787390527505631e-06 -1.363887041203215e-06 -3.069341646871124e-06 -2.894282718394645e-06 -4.30607856954151e-06 2.132063863351024e-06 -4.615136324294983e-06 -1.064544422442175e-07 -3.288180456919179e-06 -2.005871499329592e-06 5.84197857548594e-07 -2.554421879856519e-06 -1.258902032568753e-08 -1.991523192610944e-06 -2.449527296935226e-07 -2.492834193659536e-07 0 0 0 0 0 0 0 0 0 0 0 0 0 0 0 0 0 0 0 0 0 0 0 0 0 0 0 0 0 0 0 0 0 0 0 0 0 0 0 0 0 0 0 0 0 0 0 0 0 0 0 0 0 0 0 0 0 0 0 0 0 0 0 0 0 0 0 0 0 0 0 0 0 0 0 0 0 0 0 0 0 0 0 0 0 0 0 0 0 0 0 0 0 0 0 0 0 0 0 0 0 0 0 0 0 0 0 0 0 0 0 0 0 0 0 0 0 0 0 0 0 0 0 0 0 0 0 0 0 0 0 0 0 0 0 0 0 0 0 0 0 0 0 0 0 0 0 0 0 0 0 0 0 0 0 0 0 0 0 0 0 0 0 0 0 0 0 0 0 0 0 0 0 0 0 0 0 0 0 0 0 0 0 0 0 0 0 0 0 0 0 0 0 0 0 0 0 0 0 0 0 0 0 0 0 0 0 0 0 0 0 0 0 0 0 0 0 0 -2.501518985459699e-06 3.913670298724621e-07 -5.122365710373123e-06 -8.601404042854976e-06 -3.911806648749577e-06 -1.178657641261827e-05 1.127723355034824e-06 -1.046094365539038e-05 -2.048006917038257e-05 -4.050558802986214e-06 -2.153263840724352e-05 5.871506103898507e-06 -1.602959437311779e-05 -2.919852087071022e-05 -4.986199726630365e-06 -2.616804703259087e-05 -3.83120641656885e-05 -1.496632272268669e-05 -4.187662204890174e-05 1.789298229467847e-06 -3.510050008701473e-05 -4.532051273790043e-05 -1.960846647453584e-05 -4.401755665182732e-05 1.258440462360236e-07 -2.979987061140486e-05 -6.574125110518858e-05 -5.339256080791267e-06 -6.44300911094791e-05 2.519008797327382e-05 -5.442964263913943e-05 -3.93215340002322e-05 -5.345274450981009e-05 4.231103762381613e-05 -0.0003127216231461197 0.001469629492619954 0.02747351406239602 0.05564142243167841 0.08325792532593757 0.11107889927869 0.1388671008662667 0.166623823292275 0.1944550168205266 0.2221840388917183 0.2499787913177965 0.2777464920361042 0.305554535070948 0.333304245102049 0.3611356421051647 0.3888140839933514 0.416717964871234 0.4443631094443442 0.4722729529337779 0.4999091414143332 0.5278559829136299 0.5554466707985857 0.5834486994098148 0.6109572048502876 0.6390518103610048 0.6664675946473638 0.6946727852421694 0.7219468916584458 0.7503373909682395 0.7773487788043426 0.8061360723144909 0.8324973505329488 0.8622022826875819 0.86317805084187 0.832324072083735 0.8062061410569875 0.7773105411691248 0.7503643618887847 0.7219246905197254 0.6946883312379208 0.6664546335462732 0.6390640991163768 0.6109436048746172 0.5834798437474316 0.5554117997437362 0.5278939131656198 0.4998692069183255 0.4723135814864883 0.4443463415409278 0.4167393815264822 0.3887853467658453 0.3611747490101467 0.3332153064656515 0.3056526147445829 0.2776404173202801 0.250091641402675 0.2220653994405637 0.1945366489422597 0.1665224443830861 0.138996233281082 0.1109108386788522 0.08354108227122367 0.05527744892335396 0.02804064706515305 -0.0003947776595672044 -0.02738969912769832 -0.05612037743876164 -0.08256947228040884 -0.1122020652823586 -0.1132644893680207 -0.08232411441327329 -0.05629520358729598 -0.02711469824766568 -0.001883934342170171 0.0004899197541619776 -0.0003772878963434 0.0002441907851622432 -0.0002515556471318348 0.0001434369419946543 -0.0001354723317616484 8.650431520242937e-05 -0.0001167377604361233 5.439132210259467e-05 -0.0001052696105434539 7.510462935173634e-05 -9.309000310261947e-05 4.527159959303995e-05 -7.679313873520252e-05 2.334215450382547e-05 -3.707058754238936e-05 9.411391675453289e-06 -3.554580889129986e-05 3.363640729306995e-06 -3.024802124726266e-05 1.117386320434222e-05 -2.403930545265493e-05 1.19832728027682e-06 -4.815813329288998e-06 -3.615894269722791e-06 2.52250648664797e-07 -1.133290353465896e-05 1.005415421093501e-05 -1.801400337229688e-05 2.366076809497198e-05 -2.113538223151405e-05 2.815284845851261e-05 -2.495538748413049e-05 2.742995048800164e-05 -4.237616063695435e-05 3.920661013899807e-05 -5.5496586633303e-05 5.337002247515805e-05 -6.618310529497645e-05 5.885635274374585e-05 -7.937413235720308e-05 7.763029257612687e-05 -9.754304827672304e-05 0.00010612738965224 -0.0001398559365372266 0.0001483030037912285 -0.000187933299571411 0.0002185870263842057 -0.0002764947731503677 0.0003383370467956161 -0.0004233276595461328 0.006677385192167587 0.009901279564784191 0.014975793752999 0.02009779104833513 0.0233459254495731 0.03017735414822676 0.03188720414890607 0.04000573782780117 0.04073307148458154 0.04961107534031408 0.05381359302081292 0.05786893591107787 0.06350598199398438 0.06728499406993062 0.06971289315492106 0.07556506826224359 0.07985734881608632 0.08396464478918336 0.08991522375743559 0.09253231774136397 0.09607925253355151 0.101606164637297 0.1061570916255141 0.1087588969323062 0.1129880917759692 0.118983365057325 0.1219060855413766 0.1256649415720249 0.1289202550275272 0.1325920260576419 0.1358401603017706 0.1395924441586858 0.14271153292053 0.1466594874649385 0.1494449930349038 0.1540074120891869 0.1548496265095773 0.1575820963704336 0.1612351354312003 0.1649637544656399 0.165039119730805 0.1699309245259162 0.1696472939974338 0.1743049232356611 0.1747702629503139 0.1782520970554122 0.1802631762101868 0.1818318487616812 0.1862054223964043 0.183822768320696 0.1886399392537785 0.1900299327704413 0.1901823651475417 0.1895623089464032 0.1914612342311113 0.1954426273106974 0.1947596744735965 0.1951347801922487 0.1948756898362966 0.1950906444545136 0.1948900844451517 0.1950792138423721 0.1949041111483786 0.1950839520993045 0.1948934631985723 0.1950887977660712 0.1948687229592743 0.1951354574767818 0.1948213843536933 0.1952053361785056 0.1946884081405149 0.1954732098979203 0.1934798770590177 0.1895688367201414 0.190162407836801 0.1899126960637927 0.1899214331727637 0.1852149601015372 0.184962289178853 0.1846645253008446 0.1796148723756199 0.1803760974669626 0.1749160123464839 0.1755636064681373 0.1706755692115738 0.1703678260036306 0.1667842762814243 0.1648591170732063 0.1631578761217134 0.1588999251784692 0.1556287641695808 0.154606856644844 0.1514151400410917 0.1476014747705291 0.1444330621799569 0.1407152296062482 0.1374386514626616 0.1338137261467064 0.1304559836631032 0.1269365541888866 0.1233948473355717 0.1202037051167311 0.115795801536456 0.1097272092877456 0.1077169394047134 0.102979139948385 0.1008504349093027 0.09550916019852267 0.09047327822574586 0.08710745232083747 0.08058041138899436 0.07821909162049935 0.0712627215536062 0.06851885141406334 0.06492102360572258 0.06065367010873923 0.05449520294836299 0.05265286977313195 0.04317042313244335 0.04065925118949183 0.03528196751216947 0.03032190207319004 0.02693763279182287 0.02030816858415319 0.01823980551672906 0.01068970196160996 0.009124762017773394 0.001514058503836347 -0.0002165731534859675 5.172488406977384e-05 -2.907320891448004e-05 2.170734918307651e-06 -6.942629052497524e-06 -1.261748938608994e-05 1.051524332992631e-05 -1.807534346871907e-05 7.470075252393904e-06 -1.855712163715015e-05 2.869155434219397e-06 -7.291309250657568e-06 -3.795400732936895e-07 -9.387494449996907e-06 -1.472493850162281e-06 -1.13678279971617e-05 5.306958962170632e-06 -1.152897383594685e-05 1.554372076136075e-06 -9.787390527505631e-06 -1.363887041203215e-06 -3.069341646871124e-06 -2.894282718394645e-06 -4.30607856954151e-06 2.132063863351024e-06 -4.615136324294983e-06 -1.064544422442175e-07 -3.288180456919179e-06 -2.005871499329592e-06 5.84197857548594e-07 -2.554421879856519e-06 -1.258902032568753e-08 -1.991523192610944e-06 -2.449527296935226e-07 -2.492834193659536e-07 0 0 0 0 0 0 0 0 0 0 0 0 0 0 0 0 0 0 0 0 0 0 0 0 0 0 0 0 0 0 0 0 0 0 0 0 0 0 0 0 0 0 0 0 0 0 0 0 0 0 0 0 0 0 0 0 0 0 0 0 0 0 0 0 0 0 0 0 0 0 0 0 0 0 0 0 0 0 0 0 0 0 0 0 0 0 0 0 0 0 0 0 0 0 0 0 0 0 0 0 0 0 0 0 0 0 0 0 0 0 0 0 0 0 0 0 0 0 0 0 0 0 0 0 0 0 0 0 0 0 0 0 0 0 0 0 0 0 0 0 0 0 0 0 0 0 0 0 0 0 0 0 0 0 0 0 0 0 0 0 0 0 0 0 0 0 0 0 0 0 0 0 0 0 0 0 0 0 0 0 0 0 0 0 0 0 0 0 0 0 0 0 0 0 0 0 0 0 0 0 0 0 0 0 0 0 0 0 0 0 0 0 0 0 0 0 0 0 -2.501518985459699e-06 3.913670298724621e-07 -5.122365710373123e-06 -8.601404042854976e-06 -3.911806648749577e-06 -1.178657641261827e-05 1.127723355034824e-06 -1.046094365539038e-05 -2.048006917038257e-05 -4.050558802986214e-06 -2.153263840724352e-05 5.871506103898507e-06 -1.602959437311779e-05 -2.919852087071022e-05 -4.986199726630365e-06 -2.616804703259087e-05 -3.83120641656885e-05 -1.496632272268669e-05 -4.187662204890174e-05 1.789298229467847e-06 -3.510050008701473e-05 -4.532051273790043e-05 -1.960846647453584e-05 -4.401755665182732e-05 1.258440462360236e-07 -2.979987061140486e-05 -6.574125110518858e-05 -5.339256080791267e-06 -6.44300911094791e-05 2.519008797327382e-05 -5.442964263913943e-05 -3.93215340002322e-05 -5.345274450981009e-05 4.231103762381613e-05 -0.0003127216231461197 0.001469629492619954 0.02747351406239602 0.05564142243167841 0.08325792532593757 0.11107889927869 0.1388671008662667 0.166623823292275 0.1944550168205266 0.2221840388917183 0.2499787913177965 0.2777464920361042 0.305554535070948 0.333304245102049 0.3611356421051647 0.3888140839933514 0.416717964871234 0.4443631094443442 0.4722729529337779 0.4999091414143332 0.5278559829136299 0.5554466707985857 0.5834486994098148 0.6109572048502876 0.6390518103610048 0.6664675946473638 0.6946727852421694 0.7219468916584458 0.7503373909682395 0.7773487788043426 0.8061360723144909 0.8324973505329488 0.8622022826875819 0.86317805084187 0.832324072083735 0.8062061410569875 0.7773105411691248 0.7503643618887847 0.7219246905197254 0.6946883312379208 0.6664546335462732 0.6390640991163768 0.6109436048746172 0.5834798437474316 0.5554117997437362 0.5278939131656198 0.4998692069183255 0.4723135814864883 0.4443463415409278 0.4167393815264822 0.3887853467658453 0.3611747490101467 0.3332153064656515 0.3056526147445829 0.2776404173202801 0.250091641402675 0.2220653994405637 0.1945366489422597 0.1665224443830861 0.138996233281082 0.1109108386788522 0.08354108227122367 0.05527744892335396 0.02804064706515305 -0.0003947776595672044 -0.02738969912769832 -0.05612037743876164 -0.08256947228040884 -0.1122020652823586 -0.1132644893680207 -0.08232411441327329 -0.05629520358729598 -0.02711469824766568 -0.001883934342170171 0.0004899197541619776 -0.0003772878963434 0.0002441907851622432 -0.0002515556471318348 0.0001434369419946543 -0.0001354723317616484 8.650431520242937e-05 -0.0001167377604361233 5.439132210259467e-05 -0.0001052696105434539 7.510462935173634e-05 -9.309000310261947e-05 4.527159959303995e-05 -7.679313873520252e-05 2.334215450382547e-05 -3.707058754238936e-05 9.411391675453289e-06 -3.554580889129986e-05 3.363640729306995e-06 -3.024802124726266e-05 1.117386320434222e-05 -2.403930545265493e-05 1.19832728027682e-06 -4.815813329288998e-06 -3.615894269722791e-06 2.52250648664797e-07 -1.133290353465896e-05 1.005415421093501e-05 -1.801400337229688e-05 2.366076809497198e-05 -2.113538223151405e-05 2.815284845851261e-05 -2.495538748413049e-05 2.742995048800164e-05 -4.237616063695435e-05 3.920661013899807e-05 -5.5496586633303e-05 5.337002247515805e-05 -6.618310529497645e-05 5.885635274374585e-05 -7.937413235720308e-05 7.763029257612687e-05 -9.754304827672304e-05 0.00010612738965224 -0.0001398559365372266 0.0001483030037912285 -0.000187933299571411 0.0002185870263842057 -0.0002764947731503677 0.0003383370467956161 -0.0004233276595461328 0.006677385192167587 0.009901279564784191 0.014975793752999 0.02009779104833513 0.0233459254495731 0.03017735414822676 0.03188720414890607 0.04000573782780117 0.04073307148458154 0.04961107534031408 0.05381359302081292 0.05786893591107787 0.06350598199398438 0.06728499406993062 0.06971289315492106 0.07556506826224359 0.07985734881608632 0.08396464478918336 0.08991522375743559 0.09253231774136397 0.09607925253355151 0.101606164637297 0.1061570916255141 0.1087588969323062 0.1129880917759692 0.118983365057325 0.1219060855413766 0.1256649415720249 0.1289202550275272 0.1325920260576419 0.1358401603017706 0.1395924441586858 0.14271153292053 0.1466594874649385 0.1494449930349038 0.1540074120891869 0.1548496265095773 0.1575820963704336 0.1612351354312003 0.1649637544656399 0.165039119730805 0.1699309245259162 0.1696472939974338 0.1743049232356611 0.1747702629503139 0.1782520970554122 0.1802631762101868 0.1818318487616812 0.1862054223964043 0.183822768320696 0.1886399392537785 0.1900299327704413 0.1901823651475417 0.1895623089464032 0.1914612342311113 0.1954426273106974 0.1947596744735965 0.1951347801922487 0.1948756898362966 0.1950906444545136 0.1948900844451517 0.1950792138423721 0.1949041111483786 0.1950839520993045 0.1948934631985723 0.1950887977660712 0.1948687229592743 0.1951354574767818 0.1948213843536933 0.1952053361785056 0.1946884081405149 0.1954732098979203 0.1934798770590177 0.1895688367201414 0.190162407836801 0.1899126960637927 0.1899214331727637 0.1852149601015372 0.184962289178853 0.1846645253008446 0.1796148723756199 0.1803760974669626 0.1749160123464839 0.1755636064681373 0.1706755692115738 0.1703678260036306 0.1667842762814243 0.1648591170732063 0.1631578761217134 0.1588999251784692 0.1556287641695808 0.154606856644844 0.1514151400410917 0.1476014747705291 0.1444330621799569 0.1407152296062482 0.1374386514626616 0.1338137261467064 0.1304559836631032 0.1269365541888866 0.1233948473355717 0.1202037051167311 0.115795801536456 0.1097272092877456 0.1077169394047134 0.102979139948385 0.1008504349093027 0.09550916019852267 0.09047327822574586 0.08710745232083747 0.08058041138899436 0.07821909162049935 0.0712627215536062 0.06851885141406334 0.06492102360572258 0.06065367010873923 0.05449520294836299 0.05265286977313195 0.04317042313244335 0.04065925118949183 0.03528196751216947 0.03032190207319004 0.02693763279182287 0.02030816858415319 0.01823980551672906 0.01068970196160996 0.009124762017773394 0.001514058503836347 -0.0002165731534859675 5.172488406977384e-05 -2.907320891448004e-05 2.170734918307651e-06 -6.942629052497524e-06 -1.261748938608994e-05 1.051524332992631e-05 -1.807534346871907e-05 7.470075252393904e-06 -1.855712163715015e-05 2.869155434219397e-06 -7.291309250657568e-06 -3.795400732936895e-07 -9.387494449996907e-06 -1.472493850162281e-06 -1.13678279971617e-05 5.306958962170632e-06 -1.152897383594685e-05 1.554372076136075e-06 -9.787390527505631e-06 -1.363887041203215e-06 -3.069341646871124e-06 -2.894282718394645e-06 -4.30607856954151e-06 2.132063863351024e-06 -4.615136324294983e-06 -1.064544422442175e-07 -3.288180456919179e-06 -2.005871499329592e-06 5.84197857548594e-07 -2.554421879856519e-06 -1.258902032568753e-08 -1.991523192610944e-06 -2.449527296935226e-07 -2.492834193659536e-07 0 0 0 0 0 0 0 0 0 0 0 0 0 0 0 0 0 0 0 0 0 0 0 0 0 0 0 0 0 0 0 0 0 0 0 0 0 0 0 0 0 0 0 0 0 0 0 0 0 0 0 0 0 0 0 0 0 0 0 0 0 0 0 0 0 0 0 0 0 0 0 0 0 0 0 0 0 0 0 0 0 0 0 0 0 0 0 0 0 0 0 0 0 0 0 0 0 0 0 0 0 0 0 0 0 0 0 0 0 0 0 0 0 0 0 0 0 0 0 0 0 0 0 0 0 0 0 0 0 0 0 0 0 0 0 0 0 0 0 0 0 0 0 0 0 0 0 0 0 0 0 0 0 0 0 0 0 0 0 0 0 0 0 0 0 0 0 0 0 0 0 0 0 0 0 0 0 0 0 0 0 0 0 0 0 0 0 0 0 0 0 0 0 0 0 0 0 0 0 0 0 0 0 0 0 0 0 0 0 0 0 0 0 0 0 0 0 0 -2.501518985459699e-06 3.913670298724621e-07 -5.122365710373123e-06 -8.601404042854976e-06 -3.911806648749577e-06 -1.178657641261827e-05 1.127723355034824e-06 -1.046094365539038e-05 -2.048006917038257e-05 -4.050558802986214e-06 -2.153263840724352e-05 5.871506103898507e-06 -1.602959437311779e-05 -2.919852087071022e-05 -4.986199726630365e-06 -2.616804703259087e-05 -3.83120641656885e-05 -1.496632272268669e-05 -4.187662204890174e-05 1.789298229467847e-06 -3.510050008701473e-05 -4.532051273790043e-05 -1.960846647453584e-05 -4.401755665182732e-05 1.258440462360236e-07 -2.979987061140486e-05 -6.574125110518858e-05 -5.339256080791267e-06 -6.44300911094791e-05 2.519008797327382e-05 -5.442964263913943e-05 -3.93215340002322e-05 -5.345274450981009e-05 4.231103762381613e-05 -0.0003127216231461197 0.001469629492619954 0.02747351406239602 0.05564142243167841 0.08325792532593757 0.11107889927869 0.1388671008662667 0.166623823292275 0.1944550168205266 0.2221840388917183 0.2499787913177965 0.2777464920361042 0.305554535070948 0.333304245102049 0.3611356421051647 0.3888140839933514 0.416717964871234 0.4443631094443442 0.4722729529337779 0.4999091414143332 0.5278559829136299 0.5554466707985857 0.5834486994098148 0.6109572048502876 0.6390518103610048 0.6664675946473638 0.6946727852421694 0.7219468916584458 0.7503373909682395 0.7773487788043426 0.8061360723144909 0.8324973505329488 0.8622022826875819 0.86317805084187 0.832324072083735 0.8062061410569875 0.7773105411691248 0.7503643618887847 0.7219246905197254 0.6946883312379208 0.6664546335462732 0.6390640991163768 0.6109436048746172 0.5834798437474316 0.5554117997437362 0.5278939131656198 0.4998692069183255 0.4723135814864883 0.4443463415409278 0.4167393815264822 0.3887853467658453 0.3611747490101467 0.3332153064656515 0.3056526147445829 0.2776404173202801 0.250091641402675 0.2220653994405637 0.1945366489422597 0.1665224443830861 0.138996233281082 0.1109108386788522 0.08354108227122367 0.05527744892335396 0.02804064706515305 -0.0003947776595672044 -0.02738969912769832 -0.05612037743876164 -0.08256947228040884 -0.1122020652823586 -0.1132644893680207 -0.08232411441327329 -0.05629520358729598 -0.02711469824766568 -0.001883934342170171 0.0004899197541619776 -0.0003772878963434 0.0002441907851622432 -0.0002515556471318348 0.0001434369419946543 -0.0001354723317616484 8.650431520242937e-05 -0.0001167377604361233 5.439132210259467e-05 -0.0001052696105434539 7.510462935173634e-05 -9.309000310261947e-05 4.527159959303995e-05 -7.679313873520252e-05 2.334215450382547e-05 -3.707058754238936e-05 9.411391675453289e-06 -3.554580889129986e-05 3.363640729306995e-06 -3.024802124726266e-05 1.117386320434222e-05 -2.403930545265493e-05 1.19832728027682e-06 -4.815813329288998e-06 -3.615894269722791e-06 2.52250648664797e-07 -1.133290353465896e-05 1.005415421093501e-05 -1.801400337229688e-05 2.366076809497198e-05 -2.113538223151405e-05 2.815284845851261e-05 -2.495538748413049e-05 2.742995048800164e-05 -4.237616063695435e-05 3.920661013899807e-05 -5.5496586633303e-05 5.337002247515805e-05 -6.618310529497645e-05 5.885635274374585e-05 -7.937413235720308e-05 7.763029257612687e-05 -9.754304827672304e-05 0.00010612738965224 -0.0001398559365372266 0.0001483030037912285 -0.000187933299571411 0.0002185870263842057 -0.0002764947731503677 0.0003383370467956161 -0.0004233276595461328 0.006677385192167587 0.009901279564784191 0.014975793752999 0.02009779104833513 0.0233459254495731 0.03017735414822676 0.03188720414890607 0.04000573782780117 0.04073307148458154 0.04961107534031408 0.05381359302081292 0.05786893591107787 0.06350598199398438 0.06728499406993062 0.06971289315492106 0.07556506826224359 0.07985734881608632 0.08396464478918336 0.08991522375743559 0.09253231774136397 0.09607925253355151 0.101606164637297 0.1061570916255141 0.1087588969323062 0.1129880917759692 0.118983365057325 0.1219060855413766 0.1256649415720249 0.1289202550275272 0.1325920260576419 0.1358401603017706 0.1395924441586858 0.14271153292053 0.1466594874649385 0.1494449930349038 0.1540074120891869 0.1548496265095773 0.1575820963704336 0.1612351354312003 0.1649637544656399 0.165039119730805 0.1699309245259162 0.1696472939974338 0.1743049232356611 0.1747702629503139 0.1782520970554122 0.1802631762101868 0.1818318487616812 0.1862054223964043 0.183822768320696 0.1886399392537785 0.1900299327704413 0.1901823651475417 0.1895623089464032 0.1914612342311113 0.1954426273106974 0.1947596744735965 0.1951347801922487 0.1948756898362966 0.1950906444545136 0.1948900844451517 0.1950792138423721 0.1949041111483786 0.1950839520993045 0.1948934631985723 0.1950887977660712 0.1948687229592743 0.1951354574767818 0.1948213843536933 0.1952053361785056 0.1946884081405149 0.1954732098979203 0.1934798770590177 0.1895688367201414 0.190162407836801 0.1899126960637927 0.1899214331727637 0.1852149601015372 0.184962289178853 0.1846645253008446 0.1796148723756199 0.1803760974669626 0.1749160123464839 0.1755636064681373 0.1706755692115738 0.1703678260036306 0.1667842762814243 0.1648591170732063 0.1631578761217134 0.1588999251784692 0.1556287641695808 0.154606856644844 0.1514151400410917 0.1476014747705291 0.1444330621799569 0.1407152296062482 0.1374386514626616 0.1338137261467064 0.1304559836631032 0.1269365541888866 0.1233948473355717 0.1202037051167311 0.115795801536456 0.1097272092877456 0.1077169394047134 0.102979139948385 0.1008504349093027 0.09550916019852267 0.09047327822574586 0.08710745232083747 0.08058041138899436 0.07821909162049935 0.0712627215536062 0.06851885141406334 0.06492102360572258 0.06065367010873923 0.05449520294836299 0.05265286977313195 0.04317042313244335 0.04065925118949183 0.03528196751216947 0.03032190207319004 0.02693763279182287 0.02030816858415319 0.01823980551672906 0.01068970196160996 0.009124762017773394 0.001514058503836347 -0.0002165731534859675 5.172488406977384e-05 -2.907320891448004e-05 2.170734918307651e-06 -6.942629052497524e-06 -1.261748938608994e-05 1.051524332992631e-05 -1.807534346871907e-05 7.470075252393904e-06 -1.855712163715015e-05 2.869155434219397e-06 -7.291309250657568e-06 -3.795400732936895e-07 -9.387494449996907e-06 -1.472493850162281e-06 -1.13678279971617e-05 5.306958962170632e-06 -1.152897383594685e-05 1.554372076136075e-06 -9.787390527505631e-06 -1.363887041203215e-06 -3.069341646871124e-06 -2.894282718394645e-06 -4.30607856954151e-06 2.132063863351024e-06 -4.615136324294983e-06 -1.064544422442175e-07 -3.288180456919179e-06 -2.005871499329592e-06 5.84197857548594e-07 -2.554421879856519e-06 -1.258902032568753e-08 -1.991523192610944e-06 -2.449527296935226e-07 -2.492834193659536e-07 0 0 0 0 0 0 0 0 0 0 0 0 0 0 0 0 0 0 0 0 0 0 0 0 0 0 0 0 0 0 0 0 0 0 0 0 0 0 0 0 0 0 0 0 0 0 0 0 0 0 0 0 0 0 0 0 0 0 0 0 0 0 0 0 0 0 0 0 0 0 0 0 0 0 0 0 0 0 0 0 0 0 0 0 0 0 0 0 0 0 0 0 0 0 0 0 0 0 0 0 0 0 0 0 0 0 0 0 0 0 0 0 0 0 0 0 0 0 0 0 0 0 0 0 0 0 0 0 0 0 0 0 0 0 0 0 0 0 0 0 0 0 0 0 0 0 0 0 0 0 0 0 0 0 0 0 0 0 0 0 0 0 0 0 0 0 0 0 0 0 0 0 0 0 0 0 0 0 0 0 0 0 0 0 0 0 0 0 0 0 0 0 0 0 0 0 0 0 0 0 0 0 0 0 0 0 0 0 0 0 0 0 0 0 0 0 0 0 -2.501518985459699e-06 3.913670298724621e-07 -5.122365710373123e-06 -8.601404042854976e-06 -3.911806648749577e-06 -1.178657641261827e-05 1.127723355034824e-06 -1.046094365539038e-05 -2.048006917038257e-05 -4.050558802986214e-06 -2.153263840724352e-05 5.871506103898507e-06 -1.602959437311779e-05 -2.919852087071022e-05 -4.986199726630365e-06 -2.616804703259087e-05 -3.83120641656885e-05 -1.496632272268669e-05 -4.187662204890174e-05 1.789298229467847e-06 -3.510050008701473e-05 -4.532051273790043e-05 -1.960846647453584e-05 -4.401755665182732e-05 1.258440462360236e-07 -2.979987061140486e-05 -6.574125110518858e-05 -5.339256080791267e-06 -6.44300911094791e-05 2.519008797327382e-05 -5.442964263913943e-05 -3.93215340002322e-05 -5.345274450981009e-05 4.231103762381613e-05 -0.0003127216231461197 0.001469629492619954 0.02747351406239602 0.05564142243167841 0.08325792532593757 0.11107889927869 0.1388671008662667 0.166623823292275 0.1944550168205266 0.2221840388917183 0.2499787913177965 0.2777464920361042 0.305554535070948 0.333304245102049 0.3611356421051647 0.3888140839933514 0.416717964871234 0.4443631094443442 0.4722729529337779 0.4999091414143332 0.5278559829136299 0.5554466707985857 0.5834486994098148 0.6109572048502876 0.6390518103610048 0.6664675946473638 0.6946727852421694 0.7219468916584458 0.7503373909682395 0.7773487788043426 0.8061360723144909 0.8324973505329488 0.8622022826875819 0.86317805084187 0.832324072083735 0.8062061410569875 0.7773105411691248 0.7503643618887847 0.7219246905197254 0.6946883312379208 0.6664546335462732 0.6390640991163768 0.6109436048746172 0.5834798437474316 0.5554117997437362 0.5278939131656198 0.4998692069183255 0.4723135814864883 0.4443463415409278 0.4167393815264822 0.3887853467658453 0.3611747490101467 0.3332153064656515 0.3056526147445829 0.2776404173202801 0.250091641402675 0.2220653994405637 0.1945366489422597 0.1665224443830861 0.138996233281082 0.1109108386788522 0.08354108227122367 0.05527744892335396 0.02804064706515305 -0.0003947776595672044 -0.02738969912769832 -0.05612037743876164 -0.08256947228040884 -0.1122020652823586 -0.1132644893680207 -0.08232411441327329 -0.05629520358729598 -0.02711469824766568 -0.001883934342170171 0.0004899197541619776 -0.0003772878963434 0.0002441907851622432 -0.0002515556471318348 0.0001434369419946543 -0.0001354723317616484 8.650431520242937e-05 -0.0001167377604361233 5.439132210259467e-05 -0.0001052696105434539 7.510462935173634e-05 -9.309000310261947e-05 4.527159959303995e-05 -7.679313873520252e-05 2.334215450382547e-05 -3.707058754238936e-05 9.411391675453289e-06 -3.554580889129986e-05 3.363640729306995e-06 -3.024802124726266e-05 1.117386320434222e-05 -2.403930545265493e-05 1.19832728027682e-06 -4.815813329288998e-06 -3.615894269722791e-06 2.52250648664797e-07 -1.133290353465896e-05 1.005415421093501e-05 -1.801400337229688e-05 2.366076809497198e-05 -2.113538223151405e-05 2.815284845851261e-05 -2.495538748413049e-05 2.742995048800164e-05 -4.237616063695435e-05 3.920661013899807e-05 -5.5496586633303e-05 5.337002247515805e-05 -6.618310529497645e-05 5.885635274374585e-05 -7.937413235720308e-05 7.763029257612687e-05 -9.754304827672304e-05 0.00010612738965224 -0.0001398559365372266 0.0001483030037912285 -0.000187933299571411 0.0002185870263842057 -0.0002764947731503677 0.0003383370467956161 -0.0004233276595461328 0.006677385192167587 0.009901279564784191 0.014975793752999 0.02009779104833513 0.0233459254495731 0.03017735414822676 0.03188720414890607 0.04000573782780117 0.04073307148458154 0.04961107534031408 0.05381359302081292 0.05786893591107787 0.06350598199398438 0.06728499406993062 0.06971289315492106 0.07556506826224359 0.07985734881608632 0.08396464478918336 0.08991522375743559 0.09253231774136397 0.09607925253355151 0.101606164637297 0.1061570916255141 0.1087588969323062 0.1129880917759692 0.118983365057325 0.1219060855413766 0.1256649415720249 0.1289202550275272 0.1325920260576419 0.1358401603017706 0.1395924441586858 0.14271153292053 0.1466594874649385 0.1494449930349038 0.1540074120891869 0.1548496265095773 0.1575820963704336 0.1612351354312003 0.1649637544656399 0.165039119730805 0.1699309245259162 0.1696472939974338 0.1743049232356611 0.1747702629503139 0.1782520970554122 0.1802631762101868 0.1818318487616812 0.1862054223964043 0.183822768320696 0.1886399392537785 0.1900299327704413 0.1901823651475417 0.1895623089464032 0.1914612342311113 0.1954426273106974 0.1947596744735965 0.1951347801922487 0.1948756898362966 0.1950906444545136 0.1948900844451517 0.1950792138423721 0.1949041111483786 0.1950839520993045 0.1948934631985723 0.1950887977660712 0.1948687229592743 0.1951354574767818 0.1948213843536933 0.1952053361785056 0.1946884081405149 0.1954732098979203 0.1934798770590177 0.1895688367201414 0.190162407836801 0.1899126960637927 0.1899214331727637 0.1852149601015372 0.184962289178853 0.1846645253008446 0.1796148723756199 0.1803760974669626 0.1749160123464839 0.1755636064681373 0.1706755692115738 0.1703678260036306 0.1667842762814243 0.1648591170732063 0.1631578761217134 0.1588999251784692 0.1556287641695808 0.154606856644844 0.1514151400410917 0.1476014747705291 0.1444330621799569 0.1407152296062482 0.1374386514626616 0.1338137261467064 0.1304559836631032 0.1269365541888866 0.1233948473355717 0.1202037051167311 0.115795801536456 0.1097272092877456 0.1077169394047134 0.102979139948385 0.1008504349093027 0.09550916019852267 0.09047327822574586 0.08710745232083747 0.08058041138899436 0.07821909162049935 0.0712627215536062 0.06851885141406334 0.06492102360572258 0.06065367010873923 0.05449520294836299 0.05265286977313195 0.04317042313244335 0.04065925118949183 0.03528196751216947 0.03032190207319004 0.02693763279182287 0.02030816858415319 0.01823980551672906 0.01068970196160996 0.009124762017773394 0.001514058503836347 -0.0002165731534859675 5.172488406977384e-05 -2.907320891448004e-05 2.170734918307651e-06 -6.942629052497524e-06 -1.261748938608994e-05 1.051524332992631e-05 -1.807534346871907e-05 7.470075252393904e-06 -1.855712163715015e-05 2.869155434219397e-06 -7.291309250657568e-06 -3.795400732936895e-07 -9.387494449996907e-06 -1.472493850162281e-06 -1.13678279971617e-05 5.306958962170632e-06 -1.152897383594685e-05 1.554372076136075e-06 -9.787390527505631e-06 -1.363887041203215e-06 -3.069341646871124e-06 -2.894282718394645e-06 -4.30607856954151e-06 2.132063863351024e-06 -4.615136324294983e-06 -1.064544422442175e-07 -3.288180456919179e-06 -2.005871499329592e-06 5.84197857548594e-07 -2.554421879856519e-06 -1.258902032568753e-08 -1.991523192610944e-06 -2.449527296935226e-07 -2.492834193659536e-07 0 0 0 0 0 0 0 0 0 0 0 0 0 0 0 0 0 0 0 0 0 0 0 0 0 0 0 0 0 0 0 0 0 0 0 0 0 0 0 0 0 0 0 0 0 0 0 0 0 0 0 0 0 0 0 0 0 0 0 0 0 0 0 0 0 0 0 0 0 0 0 0 0 0 0 0 0 0 0 0 0 0 0 0 0 0 0 0 0 0 0 0 0 0 0 0 0 0 0 0 0 0 0 0 0 0 0 0 0 0 0 0 0 0 0 0 0 0 0 0 0 0 0 0 0 0 0 0 0 0 0 0 0 0 0 0 0 0 0 0 0 0 0 0 0 0 0 0 0 0 0 0 0 0 0 0 0 0 0 0 0 0 0 0 0 0 0 0 0 0 0 0 0 0 0 0 0 0 0 0 0 0 0 0 0 0 0 0 0 0 0 0 0 0 0 0 0 0 0 0 0 0 0 0 0 0 0 0 0 0 0 0 0 0 0 0 0 0 -2.501518985459699e-06 3.913670298724621e-07 -5.122365710373123e-06 -8.601404042854976e-06 -3.911806648749577e-06 -1.178657641261827e-05 1.127723355034824e-06 -1.046094365539038e-05 -2.048006917038257e-05 -4.050558802986214e-06 -2.153263840724352e-05 5.871506103898507e-06 -1.602959437311779e-05 -2.919852087071022e-05 -4.986199726630365e-06 -2.616804703259087e-05 -3.83120641656885e-05 -1.496632272268669e-05 -4.187662204890174e-05 1.789298229467847e-06 -3.510050008701473e-05 -4.532051273790043e-05 -1.960846647453584e-05 -4.401755665182732e-05 1.258440462360236e-07 -2.979987061140486e-05 -6.574125110518858e-05 -5.339256080791267e-06 -6.44300911094791e-05 2.519008797327382e-05 -5.442964263913943e-05 -3.93215340002322e-05 -5.345274450981009e-05 4.231103762381613e-05 -0.0003127216231461197 0.001469629492619954 0.02747351406239602 0.05564142243167841 0.08325792532593757 0.11107889927869 0.1388671008662667 0.166623823292275 0.1944550168205266 0.2221840388917183 0.2499787913177965 0.2777464920361042 0.305554535070948 0.333304245102049 0.3611356421051647 0.3888140839933514 0.416717964871234 0.4443631094443442 0.4722729529337779 0.4999091414143332 0.5278559829136299 0.5554466707985857 0.5834486994098148 0.6109572048502876 0.6390518103610048 0.6664675946473638 0.6946727852421694 0.7219468916584458 0.7503373909682395 0.7773487788043426 0.8061360723144909 0.8324973505329488 0.8622022826875819 0.86317805084187 0.832324072083735 0.8062061410569875 0.7773105411691248 0.7503643618887847 0.7219246905197254 0.6946883312379208 0.6664546335462732 0.6390640991163768 0.6109436048746172 0.5834798437474316 0.5554117997437362 0.5278939131656198 0.4998692069183255 0.4723135814864883 0.4443463415409278 0.4167393815264822 0.3887853467658453 0.3611747490101467 0.3332153064656515 0.3056526147445829 0.2776404173202801 0.250091641402675 0.2220653994405637 0.1945366489422597 0.1665224443830861 0.138996233281082 0.1109108386788522 0.08354108227122367 0.05527744892335396 0.02804064706515305 -0.0003947776595672044 -0.02738969912769832 -0.05612037743876164 -0.08256947228040884 -0.1122020652823586 -0.1132644893680207 -0.08232411441327329 -0.05629520358729598 -0.02711469824766568 -0.001883934342170171 0.0004899197541619776 -0.0003772878963434 0.0002441907851622432 -0.0002515556471318348 0.0001434369419946543 -0.0001354723317616484 8.650431520242937e-05 -0.0001167377604361233 5.439132210259467e-05 -0.0001052696105434539 7.510462935173634e-05 -9.309000310261947e-05 4.527159959303995e-05 -7.679313873520252e-05 2.334215450382547e-05 -3.707058754238936e-05 9.411391675453289e-06 -3.554580889129986e-05 3.363640729306995e-06 -3.024802124726266e-05 1.117386320434222e-05 -2.403930545265493e-05 1.19832728027682e-06 -4.815813329288998e-06 -3.615894269722791e-06 2.52250648664797e-07 -1.133290353465896e-05 1.005415421093501e-05 -1.801400337229688e-05 2.366076809497198e-05 -2.113538223151405e-05 2.815284845851261e-05 -2.495538748413049e-05 2.742995048800164e-05 -4.237616063695435e-05 3.920661013899807e-05 -5.5496586633303e-05 5.337002247515805e-05 -6.618310529497645e-05 5.885635274374585e-05 -7.937413235720308e-05 7.763029257612687e-05 -9.754304827672304e-05 0.00010612738965224 -0.0001398559365372266 0.0001483030037912285 -0.000187933299571411 0.0002185870263842057 -0.0002764947731503677 0.0003383370467956161 -0.0004233276595461328 0.006677385192167587 0.009901279564784191 0.014975793752999 0.02009779104833513 0.0233459254495731 0.03017735414822676 0.03188720414890607 0.04000573782780117 0.04073307148458154 0.04961107534031408 0.05381359302081292 0.05786893591107787 0.06350598199398438 0.06728499406993062 0.06971289315492106 0.07556506826224359 0.07985734881608632 0.08396464478918336 0.08991522375743559 0.09253231774136397 0.09607925253355151 0.101606164637297 0.1061570916255141 0.1087588969323062 0.1129880917759692 0.118983365057325 0.1219060855413766 0.1256649415720249 0.1289202550275272 0.1325920260576419 0.1358401603017706 0.1395924441586858 0.14271153292053 0.1466594874649385 0.1494449930349038 0.1540074120891869 0.1548496265095773 0.1575820963704336 0.1612351354312003 0.1649637544656399 0.165039119730805 0.1699309245259162 0.1696472939974338 0.1743049232356611 0.1747702629503139 0.1782520970554122 0.1802631762101868 0.1818318487616812 0.1862054223964043 0.183822768320696 0.1886399392537785 0.1900299327704413 0.1901823651475417 0.1895623089464032 0.1914612342311113 0.1954426273106974 0.1947596744735965 0.1951347801922487 0.1948756898362966 0.1950906444545136 0.1948900844451517 0.1950792138423721 0.1949041111483786 0.1950839520993045 0.1948934631985723 0.1950887977660712 0.1948687229592743 0.1951354574767818 0.1948213843536933 0.1952053361785056 0.1946884081405149 0.1954732098979203 0.1934798770590177 0.1895688367201414 0.190162407836801 0.1899126960637927 0.1899214331727637 0.1852149601015372 0.184962289178853 0.1846645253008446 0.1796148723756199 0.1803760974669626 0.1749160123464839 0.1755636064681373 0.1706755692115738 0.1703678260036306 0.1667842762814243 0.1648591170732063 0.1631578761217134 0.1588999251784692 0.1556287641695808 0.154606856644844 0.1514151400410917 0.1476014747705291 0.1444330621799569 0.1407152296062482 0.1374386514626616 0.1338137261467064 0.1304559836631032 0.1269365541888866 0.1233948473355717 0.1202037051167311 0.115795801536456 0.1097272092877456 0.1077169394047134 0.102979139948385 0.1008504349093027 0.09550916019852267 0.09047327822574586 0.08710745232083747 0.08058041138899436 0.07821909162049935 0.0712627215536062 0.06851885141406334 0.06492102360572258 0.06065367010873923 0.05449520294836299 0.05265286977313195 0.04317042313244335 0.04065925118949183 0.03528196751216947 0.03032190207319004 0.02693763279182287 0.02030816858415319 0.01823980551672906 0.01068970196160996 0.009124762017773394 0.001514058503836347 -0.0002165731534859675 5.172488406977384e-05 -2.907320891448004e-05 2.170734918307651e-06 -6.942629052497524e-06 -1.261748938608994e-05 1.051524332992631e-05 -1.807534346871907e-05 7.470075252393904e-06 -1.855712163715015e-05 2.869155434219397e-06 -7.291309250657568e-06 -3.795400732936895e-07 -9.387494449996907e-06 -1.472493850162281e-06 -1.13678279971617e-05 5.306958962170632e-06 -1.152897383594685e-05 1.554372076136075e-06 -9.787390527505631e-06 -1.363887041203215e-06 -3.069341646871124e-06 -2.894282718394645e-06 -4.30607856954151e-06 2.132063863351024e-06 -4.615136324294983e-06 -1.064544422442175e-07 -3.288180456919179e-06 -2.005871499329592e-06 5.84197857548594e-07 -2.554421879856519e-06 -1.258902032568753e-08 -1.991523192610944e-06 -2.449527296935226e-07 -2.492834193659536e-07 0 0 0 0 0 0 0 0 0 0 0 0 0 0 0 0 0 0 0 0 0 0 0 0 0 0 0 0 0 0 0 0 0 0 0 0 0 0 0 0 0 0 0 0 0 0 0 0 0 0 0 0 0 0 0 0 0 0 0 0 0 0 0 0 0 0 0 0 0 0 0 0 0 0 0 0 0 0 0 0 0 0 0 0 0 0 0 0 0 0 0 0 0 0 0 0 0 0 0 0 0 0 0 0 0 0 0 0 0 0 0 0 0 0 0 0 0 0 0 0 0 0 0 0 0 0 0 0 0 0 0 0 0 0 0 0 0 0 0 0 0 0 0 0 0 0 0 0 0 0 0 0 0 0 0 0 0 0 0 0 0 0 0 0 0 0 0 0 0 0 0 0 0 0 0 0 0 0 0 0 0 0 0 0 0 0 0 0 0 0 0 0 0 0 0 0 0 0 0 0 0 0 0 0 0 0 0 0 0 0 0 0 0 0 0 0 0 0 -2.501518985459699e-06 3.913670298724621e-07 -5.122365710373123e-06 -8.601404042854976e-06 -3.911806648749577e-06 -1.178657641261827e-05 1.127723355034824e-06 -1.046094365539038e-05 -2.048006917038257e-05 -4.050558802986214e-06 -2.153263840724352e-05 5.871506103898507e-06 -1.602959437311779e-05 -2.919852087071022e-05 -4.986199726630365e-06 -2.616804703259087e-05 -3.83120641656885e-05 -1.496632272268669e-05 -4.187662204890174e-05 1.789298229467847e-06 -3.510050008701473e-05 -4.532051273790043e-05 -1.960846647453584e-05 -4.401755665182732e-05 1.258440462360236e-07 -2.979987061140486e-05 -6.574125110518858e-05 -5.339256080791267e-06 -6.44300911094791e-05 2.519008797327382e-05 -5.442964263913943e-05 -3.93215340002322e-05 -5.345274450981009e-05 4.231103762381613e-05 -0.0003127216231461197 0.001469629492619954 0.02747351406239602 0.05564142243167841 0.08325792532593757 0.11107889927869 0.1388671008662667 0.166623823292275 0.1944550168205266 0.2221840388917183 0.2499787913177965 0.2777464920361042 0.305554535070948 0.333304245102049 0.3611356421051647 0.3888140839933514 0.416717964871234 0.4443631094443442 0.4722729529337779 0.4999091414143332 0.5278559829136299 0.5554466707985857 0.5834486994098148 0.6109572048502876 0.6390518103610048 0.6664675946473638 0.6946727852421694 0.7219468916584458 0.7503373909682395 0.7773487788043426 0.8061360723144909 0.8324973505329488 0.8622022826875819 0.86317805084187 0.832324072083735 0.8062061410569875 0.7773105411691248 0.7503643618887847 0.7219246905197254 0.6946883312379208 0.6664546335462732 0.6390640991163768 0.6109436048746172 0.5834798437474316 0.5554117997437362 0.5278939131656198 0.4998692069183255 0.4723135814864883 0.4443463415409278 0.4167393815264822 0.3887853467658453 0.3611747490101467 0.3332153064656515 0.3056526147445829 0.2776404173202801 0.250091641402675 0.2220653994405637 0.1945366489422597 0.1665224443830861 0.138996233281082 0.1109108386788522 0.08354108227122367 0.05527744892335396 0.02804064706515305 -0.0003947776595672044 -0.02738969912769832 -0.05612037743876164 -0.08256947228040884 -0.1122020652823586 -0.1132644893680207 -0.08232411441327329 -0.05629520358729598 -0.02711469824766568 -0.001883934342170171 0.0004899197541619776 -0.0003772878963434 0.0002441907851622432 -0.0002515556471318348 0.0001434369419946543 -0.0001354723317616484 8.650431520242937e-05 -0.0001167377604361233 5.439132210259467e-05 -0.0001052696105434539 7.510462935173634e-05 -9.309000310261947e-05 4.527159959303995e-05 -7.679313873520252e-05 2.334215450382547e-05 -3.707058754238936e-05 9.411391675453289e-06 -3.554580889129986e-05 3.363640729306995e-06 -3.024802124726266e-05 1.117386320434222e-05 -2.403930545265493e-05 1.19832728027682e-06 -4.815813329288998e-06 -3.615894269722791e-06 2.52250648664797e-07 -1.133290353465896e-05 1.005415421093501e-05 -1.801400337229688e-05 2.366076809497198e-05 -2.113538223151405e-05 2.815284845851261e-05 -2.495538748413049e-05 2.742995048800164e-05 -4.237616063695435e-05 3.920661013899807e-05 -5.5496586633303e-05 5.337002247515805e-05 -6.618310529497645e-05 5.885635274374585e-05 -7.937413235720308e-05 7.763029257612687e-05 -9.754304827672304e-05 0.00010612738965224 -0.0001398559365372266 0.0001483030037912285 -0.000187933299571411 0.0002185870263842057 -0.0002764947731503677 0.0003383370467956161 -0.0004233276595461328 0.006677385192167587 0.009901279564784191 0.014975793752999 0.02009779104833513 0.0233459254495731 0.03017735414822676 0.03188720414890607 0.04000573782780117 0.04073307148458154 0.04961107534031408 0.05381359302081292 0.05786893591107787 0.06350598199398438 0.06728499406993062 0.06971289315492106 0.07556506826224359 0.07985734881608632 0.08396464478918336 0.08991522375743559 0.09253231774136397 0.09607925253355151 0.101606164637297 0.1061570916255141 0.1087588969323062 0.1129880917759692 0.118983365057325 0.1219060855413766 0.1256649415720249 0.1289202550275272 0.1325920260576419 0.1358401603017706 0.1395924441586858 0.14271153292053 0.1466594874649385 0.1494449930349038 0.1540074120891869 0.1548496265095773 0.1575820963704336 0.1612351354312003 0.1649637544656399 0.165039119730805 0.1699309245259162 0.1696472939974338 0.1743049232356611 0.1747702629503139 0.1782520970554122 0.1802631762101868 0.1818318487616812 0.1862054223964043 0.183822768320696 0.1886399392537785 0.1900299327704413 0.1901823651475417 0.1895623089464032 0.1914612342311113 0.1954426273106974 0.1947596744735965 0.1951347801922487 0.1948756898362966 0.1950906444545136 0.1948900844451517 0.1950792138423721 0.1949041111483786 0.1950839520993045 0.1948934631985723 0.1950887977660712 0.1948687229592743 0.1951354574767818 0.1948213843536933 0.1952053361785056 0.1946884081405149 0.1954732098979203 0.1934798770590177 0.1895688367201414 0.190162407836801 0.1899126960637927 0.1899214331727637 0.1852149601015372 0.184962289178853 0.1846645253008446 0.1796148723756199 0.1803760974669626 0.1749160123464839 0.1755636064681373 0.1706755692115738 0.1703678260036306 0.1667842762814243 0.1648591170732063 0.1631578761217134 0.1588999251784692 0.1556287641695808 0.154606856644844 0.1514151400410917 0.1476014747705291 0.1444330621799569 0.1407152296062482 0.1374386514626616 0.1338137261467064 0.1304559836631032 0.1269365541888866 0.1233948473355717 0.1202037051167311 0.115795801536456 0.1097272092877456 0.1077169394047134 0.102979139948385 0.1008504349093027 0.09550916019852267 0.09047327822574586 0.08710745232083747 0.08058041138899436 0.07821909162049935 0.0712627215536062 0.06851885141406334 0.06492102360572258 0.06065367010873923 0.05449520294836299 0.05265286977313195 0.04317042313244335 0.04065925118949183 0.03528196751216947 0.03032190207319004 0.02693763279182287 0.02030816858415319 0.01823980551672906 0.01068970196160996 0.009124762017773394 0.001514058503836347 -0.0002165731534859675 5.172488406977384e-05 -2.907320891448004e-05 2.170734918307651e-06 -6.942629052497524e-06 -1.261748938608994e-05 1.051524332992631e-05 -1.807534346871907e-05 7.470075252393904e-06 -1.855712163715015e-05 2.869155434219397e-06 -7.291309250657568e-06 -3.795400732936895e-07 -9.387494449996907e-06 -1.472493850162281e-06 -1.13678279971617e-05 5.306958962170632e-06 -1.152897383594685e-05 1.554372076136075e-06 -9.787390527505631e-06 -1.363887041203215e-06 -3.069341646871124e-06 -2.894282718394645e-06 -4.30607856954151e-06 2.132063863351024e-06 -4.615136324294983e-06 -1.064544422442175e-07 -3.288180456919179e-06 -2.005871499329592e-06 5.84197857548594e-07 -2.554421879856519e-06 -1.258902032568753e-08 -1.991523192610944e-06 -2.449527296935226e-07 -2.492834193659536e-07 0 0 0 0 0 0 0 0 0 0 0 0 0 0 0 0 0 0 0 0 0 0 0 0 0 0 0 0 0 0 0 0 0 0 0 0 0 0 0 0 0 0 0 0 0 0 0 0 0 0 0 0 0 0 0 0 0 0 0 0 0 0 0 0 0 0 0 0 0 0 0 0 0 0 0 0 0 0 0 0 0 0 0 0 0 0 0 0 0 0 0 0 0 0 0 0 0 0 0 0 0 0 0 0 0 0 0 0 0 0 0 0 0 0 0 0 0 0 0 0 0 0 0 0 0 0 0 0 0 0 0 0 0 0 0 0 0 0 0 0 0 0 0 0 0 0 0 0 0 0 0 0 0 0 0 0 0 0 0 0 0 0 0 0 0 0 0 0 0 0 0 0 0 0 0 0 0 0 0 0 0 0 0 0 0 0 0 0 0 0 0 0 0 0 0 0 0 0 0 0 0 0 0 0 0 0 0 0 0 0 0 0 0 0 0 0 0 0 -2.501518985459699e-06 3.913670298724621e-07 -5.122365710373123e-06 -8.601404042854976e-06 -3.911806648749577e-06 -1.178657641261827e-05 1.127723355034824e-06 -1.046094365539038e-05 -2.048006917038257e-05 -4.050558802986214e-06 -2.153263840724352e-05 5.871506103898507e-06 -1.602959437311779e-05 -2.919852087071022e-05 -4.986199726630365e-06 -2.616804703259087e-05 -3.83120641656885e-05 -1.496632272268669e-05 -4.187662204890174e-05 1.789298229467847e-06 -3.510050008701473e-05 -4.532051273790043e-05 -1.960846647453584e-05 -4.401755665182732e-05 1.258440462360236e-07 -2.979987061140486e-05 -6.574125110518858e-05 -5.339256080791267e-06 -6.44300911094791e-05 2.519008797327382e-05 -5.442964263913943e-05 -3.93215340002322e-05 -5.345274450981009e-05 4.231103762381613e-05 -0.0003127216231461197 0.001469629492619954 0.02747351406239602 0.05564142243167841 0.08325792532593757 0.11107889927869 0.1388671008662667 0.166623823292275 0.1944550168205266 0.2221840388917183 0.2499787913177965 0.2777464920361042 0.305554535070948 0.333304245102049 0.3611356421051647 0.3888140839933514 0.416717964871234 0.4443631094443442 0.4722729529337779 0.4999091414143332 0.5278559829136299 0.5554466707985857 0.5834486994098148 0.6109572048502876 0.6390518103610048 0.6664675946473638 0.6946727852421694 0.7219468916584458 0.7503373909682395 0.7773487788043426 0.8061360723144909 0.8324973505329488 0.8622022826875819 0.86317805084187 0.832324072083735 0.8062061410569875 0.7773105411691248 0.7503643618887847 0.7219246905197254 0.6946883312379208 0.6664546335462732 0.6390640991163768 0.6109436048746172 0.5834798437474316 0.5554117997437362 0.5278939131656198 0.4998692069183255 0.4723135814864883 0.4443463415409278 0.4167393815264822 0.3887853467658453 0.3611747490101467 0.3332153064656515 0.3056526147445829 0.2776404173202801 0.250091641402675 0.2220653994405637 0.1945366489422597 0.1665224443830861 0.138996233281082 0.1109108386788522 0.08354108227122367 0.05527744892335396 0.02804064706515305 -0.0003947776595672044 -0.02738969912769832 -0.05612037743876164 -0.08256947228040884 -0.1122020652823586 -0.1132644893680207 -0.08232411441327329 -0.05629520358729598 -0.02711469824766568 -0.001883934342170171 0.0004899197541619776 -0.0003772878963434 0.0002441907851622432 -0.0002515556471318348 0.0001434369419946543 -0.0001354723317616484 8.650431520242937e-05 -0.0001167377604361233 5.439132210259467e-05 -0.0001052696105434539 7.510462935173634e-05 -9.309000310261947e-05 4.527159959303995e-05 -7.679313873520252e-05 2.334215450382547e-05 -3.707058754238936e-05 9.411391675453289e-06 -3.554580889129986e-05 3.363640729306995e-06 -3.024802124726266e-05 1.117386320434222e-05 -2.403930545265493e-05 1.19832728027682e-06 -4.815813329288998e-06 -3.615894269722791e-06 2.52250648664797e-07 -1.133290353465896e-05 1.005415421093501e-05 -1.801400337229688e-05 2.366076809497198e-05 -2.113538223151405e-05 2.815284845851261e-05 -2.495538748413049e-05 2.742995048800164e-05 -4.237616063695435e-05 3.920661013899807e-05 -5.5496586633303e-05 5.337002247515805e-05 -6.618310529497645e-05 5.885635274374585e-05 -7.937413235720308e-05 7.763029257612687e-05 -9.754304827672304e-05 0.00010612738965224 -0.0001398559365372266 0.0001483030037912285 -0.000187933299571411 0.0002185870263842057 -0.0002764947731503677 0.0003383370467956161 -0.0004233276595461328 0.006677385192167587 0.009901279564784191 0.014975793752999 0.02009779104833513 0.0233459254495731 0.03017735414822676 0.03188720414890607 0.04000573782780117 0.04073307148458154 0.04961107534031408 0.05381359302081292 0.05786893591107787 0.06350598199398438 0.06728499406993062 0.06971289315492106 0.07556506826224359 0.07985734881608632 0.08396464478918336 0.08991522375743559 0.09253231774136397 0.09607925253355151 0.101606164637297 0.1061570916255141 0.1087588969323062 0.1129880917759692 0.118983365057325 0.1219060855413766 0.1256649415720249 0.1289202550275272 0.1325920260576419 0.1358401603017706 0.1395924441586858 0.14271153292053 0.1466594874649385 0.1494449930349038 0.1540074120891869 0.1548496265095773 0.1575820963704336 0.1612351354312003 0.1649637544656399 0.165039119730805 0.1699309245259162 0.1696472939974338 0.1743049232356611 0.1747702629503139 0.1782520970554122 0.1802631762101868 0.1818318487616812 0.1862054223964043 0.183822768320696 0.1886399392537785 0.1900299327704413 0.1901823651475417 0.1895623089464032 0.1914612342311113 0.1954426273106974 0.1947596744735965 0.1951347801922487 0.1948756898362966 0.1950906444545136 0.1948900844451517 0.1950792138423721 0.1949041111483786 0.1950839520993045 0.1948934631985723 0.1950887977660712 0.1948687229592743 0.1951354574767818 0.1948213843536933 0.1952053361785056 0.1946884081405149 0.1954732098979203 0.1934798770590177 0.1895688367201414 0.190162407836801 0.1899126960637927 0.1899214331727637 0.1852149601015372 0.184962289178853 0.1846645253008446 0.1796148723756199 0.1803760974669626 0.1749160123464839 0.1755636064681373 0.1706755692115738 0.1703678260036306 0.1667842762814243 0.1648591170732063 0.1631578761217134 0.1588999251784692 0.1556287641695808 0.154606856644844 0.1514151400410917 0.1476014747705291 0.1444330621799569 0.1407152296062482 0.1374386514626616 0.1338137261467064 0.1304559836631032 0.1269365541888866 0.1233948473355717 0.1202037051167311 0.115795801536456 0.1097272092877456 0.1077169394047134 0.102979139948385 0.1008504349093027 0.09550916019852267 0.09047327822574586 0.08710745232083747 0.08058041138899436 0.07821909162049935 0.0712627215536062 0.06851885141406334 0.06492102360572258 0.06065367010873923 0.05449520294836299 0.05265286977313195 0.04317042313244335 0.04065925118949183 0.03528196751216947 0.03032190207319004 0.02693763279182287 0.02030816858415319 0.01823980551672906 0.01068970196160996 0.009124762017773394 0.001514058503836347 -0.0002165731534859675 5.172488406977384e-05 -2.907320891448004e-05 2.170734918307651e-06 -6.942629052497524e-06 -1.261748938608994e-05 1.051524332992631e-05 -1.807534346871907e-05 7.470075252393904e-06 -1.855712163715015e-05 2.869155434219397e-06 -7.291309250657568e-06 -3.795400732936895e-07 -9.387494449996907e-06 -1.472493850162281e-06 -1.13678279971617e-05 5.306958962170632e-06 -1.152897383594685e-05 1.554372076136075e-06 -9.787390527505631e-06 -1.363887041203215e-06 -3.069341646871124e-06 -2.894282718394645e-06 -4.30607856954151e-06 2.132063863351024e-06 -4.615136324294983e-06 -1.064544422442175e-07 -3.288180456919179e-06 -2.005871499329592e-06 5.84197857548594e-07 -2.554421879856519e-06 -1.258902032568753e-08 -1.991523192610944e-06 -2.449527296935226e-07 -2.492834193659536e-07 0 0 0 0 0 0 0 0 0 0 0 0 0 0 0 0 0 0 0 0 0 0 0 0 0 0 0 0 0 0 0 0 0 0 0 0 0 0 0 0 0 0 0 0 0 0 0 0 0 0 0 0 0 0 0 0 0 0 0 0 0 0 0 0 0 0 0 0 0 0 0 0 0 0 0 0 0 0 0 0 0 0 0 0 0 0 0 0 0 0 0 0 0 0 0 0 0 0 0 0 0 0 0 0 0 0 0 0 0 0 0 0 0 0 0 0 0 0 0 0 0 0 0 0 0 0 0 0 0 0 0 0 0 0 0 0 0 0 0 0 0 0 0 0 0 0 0 0 0 0 0 0 0 0 0 0 0 0 0 0 0 0 0 0 0 0 0 0 0 0 0 0 0 0 0 0 0 0 0 0 0 0 0 0 0 0 0 0 0 0 0 0 0 0 0 0 0 0 0 0 0 0 0 0 0 0 0 0 0 0 0 0 0 0 0 0 0 0 -2.501518985459699e-06 3.913670298724621e-07 -5.122365710373123e-06 -8.601404042854976e-06 -3.911806648749577e-06 -1.178657641261827e-05 1.127723355034824e-06 -1.046094365539038e-05 -2.048006917038257e-05 -4.050558802986214e-06 -2.153263840724352e-05 5.871506103898507e-06 -1.602959437311779e-05 -2.919852087071022e-05 -4.986199726630365e-06 -2.616804703259087e-05 -3.83120641656885e-05 -1.496632272268669e-05 -4.187662204890174e-05 1.789298229467847e-06 -3.510050008701473e-05 -4.532051273790043e-05 -1.960846647453584e-05 -4.401755665182732e-05 1.258440462360236e-07 -2.979987061140486e-05 -6.574125110518858e-05 -5.339256080791267e-06 -6.44300911094791e-05 2.519008797327382e-05 -5.442964263913943e-05 -3.93215340002322e-05 -5.345274450981009e-05 4.231103762381613e-05 -0.0003127216231461197 0.001469629492619954 0.02747351406239602 0.05564142243167841 0.08325792532593757 0.11107889927869 0.1388671008662667 0.166623823292275 0.1944550168205266 0.2221840388917183 0.2499787913177965 0.2777464920361042 0.305554535070948 0.333304245102049 0.3611356421051647 0.3888140839933514 0.416717964871234 0.4443631094443442 0.4722729529337779 0.4999091414143332 0.5278559829136299 0.5554466707985857 0.5834486994098148 0.6109572048502876 0.6390518103610048 0.6664675946473638 0.6946727852421694 0.7219468916584458 0.7503373909682395 0.7773487788043426 0.8061360723144909 0.8324973505329488 0.8622022826875819 0.86317805084187 0.832324072083735 0.8062061410569875 0.7773105411691248 0.7503643618887847 0.7219246905197254 0.6946883312379208 0.6664546335462732 0.6390640991163768 0.6109436048746172 0.5834798437474316 0.5554117997437362 0.5278939131656198 0.4998692069183255 0.4723135814864883 0.4443463415409278 0.4167393815264822 0.3887853467658453 0.3611747490101467 0.3332153064656515 0.3056526147445829 0.2776404173202801 0.250091641402675 0.2220653994405637 0.1945366489422597 0.1665224443830861 0.138996233281082 0.1109108386788522 0.08354108227122367 0.05527744892335396 0.02804064706515305 -0.0003947776595672044 -0.02738969912769832 -0.05612037743876164 -0.08256947228040884 -0.1122020652823586 -0.1132644893680207 -0.08232411441327329 -0.05629520358729598 -0.02711469824766568 -0.001883934342170171 0.0004899197541619776 -0.0003772878963434 0.0002441907851622432 -0.0002515556471318348 0.0001434369419946543 -0.0001354723317616484 8.650431520242937e-05 -0.0001167377604361233 5.439132210259467e-05 -0.0001052696105434539 7.510462935173634e-05 -9.309000310261947e-05 4.527159959303995e-05 -7.679313873520252e-05 2.334215450382547e-05 -3.707058754238936e-05 9.411391675453289e-06 -3.554580889129986e-05 3.363640729306995e-06 -3.024802124726266e-05 1.117386320434222e-05 -2.403930545265493e-05 1.19832728027682e-06 -4.815813329288998e-06 -3.615894269722791e-06 2.52250648664797e-07 -1.133290353465896e-05 1.005415421093501e-05 -1.801400337229688e-05 2.366076809497198e-05 -2.113538223151405e-05 2.815284845851261e-05 -2.495538748413049e-05 2.742995048800164e-05 -4.237616063695435e-05 3.920661013899807e-05 -5.5496586633303e-05 5.337002247515805e-05 -6.618310529497645e-05 5.885635274374585e-05 -7.937413235720308e-05 7.763029257612687e-05 -9.754304827672304e-05 0.00010612738965224 -0.0001398559365372266 0.0001483030037912285 -0.000187933299571411 0.0002185870263842057 -0.0002764947731503677 0.0003383370467956161 -0.0004233276595461328 0.006677385192167587 0.009901279564784191 0.014975793752999 0.02009779104833513 0.0233459254495731 0.03017735414822676 0.03188720414890607 0.04000573782780117 0.04073307148458154 0.04961107534031408 0.05381359302081292 0.05786893591107787 0.06350598199398438 0.06728499406993062 0.06971289315492106 0.07556506826224359 0.07985734881608632 0.08396464478918336 0.08991522375743559 0.09253231774136397 0.09607925253355151 0.101606164637297 0.1061570916255141 0.1087588969323062 0.1129880917759692 0.118983365057325 0.1219060855413766 0.1256649415720249 0.1289202550275272 0.1325920260576419 0.1358401603017706 0.1395924441586858 0.14271153292053 0.1466594874649385 0.1494449930349038 0.1540074120891869 0.1548496265095773 0.1575820963704336 0.1612351354312003 0.1649637544656399 0.165039119730805 0.1699309245259162 0.1696472939974338 0.1743049232356611 0.1747702629503139 0.1782520970554122 0.1802631762101868 0.1818318487616812 0.1862054223964043 0.183822768320696 0.1886399392537785 0.1900299327704413 0.1901823651475417 0.1895623089464032 0.1914612342311113 0.1954426273106974 0.1947596744735965 0.1951347801922487 0.1948756898362966 0.1950906444545136 0.1948900844451517 0.1950792138423721 0.1949041111483786 0.1950839520993045 0.1948934631985723 0.1950887977660712 0.1948687229592743 0.1951354574767818 0.1948213843536933 0.1952053361785056 0.1946884081405149 0.1954732098979203 0.1934798770590177 0.1895688367201414 0.190162407836801 0.1899126960637927 0.1899214331727637 0.1852149601015372 0.184962289178853 0.1846645253008446 0.1796148723756199 0.1803760974669626 0.1749160123464839 0.1755636064681373 0.1706755692115738 0.1703678260036306 0.1667842762814243 0.1648591170732063 0.1631578761217134 0.1588999251784692 0.1556287641695808 0.154606856644844 0.1514151400410917 0.1476014747705291 0.1444330621799569 0.1407152296062482 0.1374386514626616 0.1338137261467064 0.1304559836631032 0.1269365541888866 0.1233948473355717 0.1202037051167311 0.115795801536456 0.1097272092877456 0.1077169394047134 0.102979139948385 0.1008504349093027 0.09550916019852267 0.09047327822574586 0.08710745232083747 0.08058041138899436 0.07821909162049935 0.0712627215536062 0.06851885141406334 0.06492102360572258 0.06065367010873923 0.05449520294836299 0.05265286977313195 0.04317042313244335 0.04065925118949183 0.03528196751216947 0.03032190207319004 0.02693763279182287 0.02030816858415319 0.01823980551672906 0.01068970196160996 0.009124762017773394 0.001514058503836347 -0.0002165731534859675 5.172488406977384e-05 -2.907320891448004e-05 2.170734918307651e-06 -6.942629052497524e-06 -1.261748938608994e-05 1.051524332992631e-05 -1.807534346871907e-05 7.470075252393904e-06 -1.855712163715015e-05 2.869155434219397e-06 -7.291309250657568e-06 -3.795400732936895e-07 -9.387494449996907e-06 -1.472493850162281e-06 -1.13678279971617e-05 5.306958962170632e-06 -1.152897383594685e-05 1.554372076136075e-06 -9.787390527505631e-06 -1.363887041203215e-06 -3.069341646871124e-06 -2.894282718394645e-06 -4.30607856954151e-06 2.132063863351024e-06 -4.615136324294983e-06 -1.064544422442175e-07 -3.288180456919179e-06 -2.005871499329592e-06 5.84197857548594e-07 -2.554421879856519e-06 -1.258902032568753e-08 -1.991523192610944e-06 -2.449527296935226e-07 -2.492834193659536e-07 0 0 0 0 0 0 0 0 0 0 0 0 0 0 0 0 0 0 0 0 0 0 0 0 0 0 0 0 0 0 0 0 0 0 0 0 0 0 0 0 0 0 0 0 0 0 0 0 0 0 0 0 0 0 0 0 0 0 0 0 0 0 0 0 0 0 0 0 0 0 0 0 0 0 0 0 0 0 0 0 0 0 0 0 0 0 0 0 0 0 0 0 0 0 0 0 0 0 0 0 0 0 0 0 0 0 0 0 0 0 0 0 0 0 0 0 0 0 0 0 0 0 0 0 0 0 0 0 0 0 0 0 0 0 0 0 0 0 0 0 0 0 0 0 0 0 0 0 0 0 0 0 0 0 0 0 0 0 0 0 0 0 0 0 0 0 0 0 0 0 0 0 0 0 0 0 0 0 0 0 0 0 0 0 0 0 0 0 0 0 0 0 0 0 0 0 0 0 0 0 0 0 0 0 0 0 0 0 0 0 0 0 0 0 0 0 0 0 -2.501518985459699e-06 3.913670298724621e-07 -5.122365710373123e-06 -8.601404042854976e-06 -3.911806648749577e-06 -1.178657641261827e-05 1.127723355034824e-06 -1.046094365539038e-05 -2.048006917038257e-05 -4.050558802986214e-06 -2.153263840724352e-05 5.871506103898507e-06 -1.602959437311779e-05 -2.919852087071022e-05 -4.986199726630365e-06 -2.616804703259087e-05 -3.83120641656885e-05 -1.496632272268669e-05 -4.187662204890174e-05 1.789298229467847e-06 -3.510050008701473e-05 -4.532051273790043e-05 -1.960846647453584e-05 -4.401755665182732e-05 1.258440462360236e-07 -2.979987061140486e-05 -6.574125110518858e-05 -5.339256080791267e-06 -6.44300911094791e-05 2.519008797327382e-05 -5.442964263913943e-05 -3.93215340002322e-05 -5.345274450981009e-05 4.231103762381613e-05 -0.0003127216231461197 0.001469629492619954 0.02747351406239602 0.05564142243167841 0.08325792532593757 0.11107889927869 0.1388671008662667 0.166623823292275 0.1944550168205266 0.2221840388917183 0.2499787913177965 0.2777464920361042 0.305554535070948 0.333304245102049 0.3611356421051647 0.3888140839933514 0.416717964871234 0.4443631094443442 0.4722729529337779 0.4999091414143332 0.5278559829136299 0.5554466707985857 0.5834486994098148 0.6109572048502876 0.6390518103610048 0.6664675946473638 0.6946727852421694 0.7219468916584458 0.7503373909682395 0.7773487788043426 0.8061360723144909 0.8324973505329488 0.8622022826875819 0.86317805084187 0.832324072083735 0.8062061410569875 0.7773105411691248 0.7503643618887847 0.7219246905197254 0.6946883312379208 0.6664546335462732 0.6390640991163768 0.6109436048746172 0.5834798437474316 0.5554117997437362 0.5278939131656198 0.4998692069183255 0.4723135814864883 0.4443463415409278 0.4167393815264822 0.3887853467658453 0.3611747490101467 0.3332153064656515 0.3056526147445829 0.2776404173202801 0.250091641402675 0.2220653994405637 0.1945366489422597 0.1665224443830861 0.138996233281082 0.1109108386788522 0.08354108227122367 0.05527744892335396 0.02804064706515305 -0.0003947776595672044 -0.02738969912769832 -0.05612037743876164 -0.08256947228040884 -0.1122020652823586 -0.1132644893680207 -0.08232411441327329 -0.05629520358729598 -0.02711469824766568 -0.001883934342170171 0.0004899197541619776 -0.0003772878963434 0.0002441907851622432 -0.0002515556471318348 0.0001434369419946543 -0.0001354723317616484 8.650431520242937e-05 -0.0001167377604361233 5.439132210259467e-05 -0.0001052696105434539 7.510462935173634e-05 -9.309000310261947e-05 4.527159959303995e-05 -7.679313873520252e-05 2.334215450382547e-05 -3.707058754238936e-05 9.411391675453289e-06 -3.554580889129986e-05 3.363640729306995e-06 -3.024802124726266e-05 1.117386320434222e-05 -2.403930545265493e-05 1.19832728027682e-06 -4.815813329288998e-06 -3.615894269722791e-06 2.52250648664797e-07 -1.133290353465896e-05 1.005415421093501e-05 -1.801400337229688e-05 2.366076809497198e-05 -2.113538223151405e-05 2.815284845851261e-05 -2.495538748413049e-05 2.742995048800164e-05 -4.237616063695435e-05 3.920661013899807e-05 -5.5496586633303e-05 5.337002247515805e-05 -6.618310529497645e-05 5.885635274374585e-05 -7.937413235720308e-05 7.763029257612687e-05 -9.754304827672304e-05 0.00010612738965224 -0.0001398559365372266 0.0001483030037912285 -0.000187933299571411 0.0002185870263842057 -0.0002764947731503677 0.0003383370467956161 -0.0004233276595461328 0.006677385192167587 0.009901279564784191 0.014975793752999 0.02009779104833513 0.0233459254495731 0.03017735414822676 0.03188720414890607 0.04000573782780117 0.04073307148458154 0.04961107534031408 0.05381359302081292 0.05786893591107787 0.06350598199398438 0.06728499406993062 0.06971289315492106 0.07556506826224359 0.07985734881608632 0.08396464478918336 0.08991522375743559 0.09253231774136397 0.09607925253355151 0.101606164637297 0.1061570916255141 0.1087588969323062 0.1129880917759692 0.118983365057325 0.1219060855413766 0.1256649415720249 0.1289202550275272 0.1325920260576419 0.1358401603017706 0.1395924441586858 0.14271153292053 0.1466594874649385 0.1494449930349038 0.1540074120891869 0.1548496265095773 0.1575820963704336 0.1612351354312003 0.1649637544656399 0.165039119730805 0.1699309245259162 0.1696472939974338 0.1743049232356611 0.1747702629503139 0.1782520970554122 0.1802631762101868 0.1818318487616812 0.1862054223964043 0.183822768320696 0.1886399392537785 0.1900299327704413 0.1901823651475417 0.1895623089464032 0.1914612342311113 0.1954426273106974 0.1947596744735965 0.1951347801922487 0.1948756898362966 0.1950906444545136 0.1948900844451517 0.1950792138423721 0.1949041111483786 0.1950839520993045 0.1948934631985723 0.1950887977660712 0.1948687229592743 0.1951354574767818 0.1948213843536933 0.1952053361785056 0.1946884081405149 0.1954732098979203 0.1934798770590177 0.1895688367201414 0.190162407836801 0.1899126960637927 0.1899214331727637 0.1852149601015372 0.184962289178853 0.1846645253008446 0.1796148723756199 0.1803760974669626 0.1749160123464839 0.1755636064681373 0.1706755692115738 0.1703678260036306 0.1667842762814243 0.1648591170732063 0.1631578761217134 0.1588999251784692 0.1556287641695808 0.154606856644844 0.1514151400410917 0.1476014747705291 0.1444330621799569 0.1407152296062482 0.1374386514626616 0.1338137261467064 0.1304559836631032 0.1269365541888866 0.1233948473355717 0.1202037051167311 0.115795801536456 0.1097272092877456 0.1077169394047134 0.102979139948385 0.1008504349093027 0.09550916019852267 0.09047327822574586 0.08710745232083747 0.08058041138899436 0.07821909162049935 0.0712627215536062 0.06851885141406334 0.06492102360572258 0.06065367010873923 0.05449520294836299 0.05265286977313195 0.04317042313244335 0.04065925118949183 0.03528196751216947 0.03032190207319004 0.02693763279182287 0.02030816858415319 0.01823980551672906 0.01068970196160996 0.009124762017773394 0.001514058503836347 -0.0002165731534859675 5.172488406977384e-05 -2.907320891448004e-05 2.170734918307651e-06 -6.942629052497524e-06 -1.261748938608994e-05 1.051524332992631e-05 -1.807534346871907e-05 7.470075252393904e-06 -1.855712163715015e-05 2.869155434219397e-06 -7.291309250657568e-06 -3.795400732936895e-07 -9.387494449996907e-06 -1.472493850162281e-06 -1.13678279971617e-05 5.306958962170632e-06 -1.152897383594685e-05 1.554372076136075e-06 -9.787390527505631e-06 -1.363887041203215e-06 -3.069341646871124e-06 -2.894282718394645e-06 -4.30607856954151e-06 2.132063863351024e-06 -4.615136324294983e-06 -1.064544422442175e-07 -3.288180456919179e-06 -2.005871499329592e-06 5.84197857548594e-07 -2.554421879856519e-06 -1.258902032568753e-08 -1.991523192610944e-06 -2.449527296935226e-07 -2.492834193659536e-07 0 0 0 0 0 0 0 0 0 0 0 0 0 0 0 0 0 0 0 0 0 0 0 0 0 0 0 0 0 0 0 0 0 0 0 0 0 0 0 0 0 0 0 0 0 0 0 0 0 0 0 0 0 0 0 0 0 0 0 0 0 0 0 0 0 0 0 0 0 0 0 0 0 0 0 0 0 0 0 0 0 0 0 0 0 0 0 0 0 0 0 0 0 0 0 0 0 0 0 0 0 0 0 0 0 0 0 0 0 0 0 0 0 0 0 0 0 0 0 0 0 0 0 0 0 0 0 0 0 0 0 0 0 0 0 0 0 0 0 0 0 0 0 0 0 0 0 0 0 0 0 0 0 0 0 0 0 0 0 0 0 0 0 0 0 0 0 0 0 0 0 0 0 0 0 0 0 0 0 0 0 0 0 0 0 0 0 0 0 0 0 0 0 0 0 0 0 0 0 0 0 0 0 0 0 0 0 0 0 0 0 0 0 0 0 0 0 0 -2.501518985459699e-06 3.913670298724621e-07 -5.122365710373123e-06 -8.601404042854976e-06 -3.911806648749577e-06 -1.178657641261827e-05 1.127723355034824e-06 -1.046094365539038e-05 -2.048006917038257e-05 -4.050558802986214e-06 -2.153263840724352e-05 5.871506103898507e-06 -1.602959437311779e-05 -2.919852087071022e-05 -4.986199726630365e-06 -2.616804703259087e-05 -3.83120641656885e-05 -1.496632272268669e-05 -4.187662204890174e-05 1.789298229467847e-06 -3.510050008701473e-05 -4.532051273790043e-05 -1.960846647453584e-05 -4.401755665182732e-05 1.258440462360236e-07 -2.979987061140486e-05 -6.574125110518858e-05 -5.339256080791267e-06 -6.44300911094791e-05 2.519008797327382e-05 -5.442964263913943e-05 -3.93215340002322e-05 -5.345274450981009e-05 4.231103762381613e-05 -0.0003127216231461197 0.001469629492619954 0.02747351406239602 0.05564142243167841 0.08325792532593757 0.11107889927869 0.1388671008662667 0.166623823292275 0.1944550168205266 0.2221840388917183 0.2499787913177965 0.2777464920361042 0.305554535070948 0.333304245102049 0.3611356421051647 0.3888140839933514 0.416717964871234 0.4443631094443442 0.4722729529337779 0.4999091414143332 0.5278559829136299 0.5554466707985857 0.5834486994098148 0.6109572048502876 0.6390518103610048 0.6664675946473638 0.6946727852421694 0.7219468916584458 0.7503373909682395 0.7773487788043426 0.8061360723144909 0.8324973505329488 0.8622022826875819 0.86317805084187 0.832324072083735 0.8062061410569875 0.7773105411691248 0.7503643618887847 0.7219246905197254 0.6946883312379208 0.6664546335462732 0.6390640991163768 0.6109436048746172 0.5834798437474316 0.5554117997437362 0.5278939131656198 0.4998692069183255 0.4723135814864883 0.4443463415409278 0.4167393815264822 0.3887853467658453 0.3611747490101467 0.3332153064656515 0.3056526147445829 0.2776404173202801 0.250091641402675 0.2220653994405637 0.1945366489422597 0.1665224443830861 0.138996233281082 0.1109108386788522 0.08354108227122367 0.05527744892335396 0.02804064706515305 -0.0003947776595672044 -0.02738969912769832 -0.05612037743876164 -0.08256947228040884 -0.1122020652823586 -0.1132644893680207 -0.08232411441327329 -0.05629520358729598 -0.02711469824766568 -0.001883934342170171 0.0004899197541619776 -0.0003772878963434 0.0002441907851622432 -0.0002515556471318348 0.0001434369419946543 -0.0001354723317616484 8.650431520242937e-05 -0.0001167377604361233 5.439132210259467e-05 -0.0001052696105434539 7.510462935173634e-05 -9.309000310261947e-05 4.527159959303995e-05 -7.679313873520252e-05 2.334215450382547e-05 -3.707058754238936e-05 9.411391675453289e-06 -3.554580889129986e-05 3.363640729306995e-06 -3.024802124726266e-05 1.117386320434222e-05 -2.403930545265493e-05 1.19832728027682e-06 -4.815813329288998e-06 -3.615894269722791e-06 2.52250648664797e-07 -1.133290353465896e-05 1.005415421093501e-05 -1.801400337229688e-05 2.366076809497198e-05 -2.113538223151405e-05 2.815284845851261e-05 -2.495538748413049e-05 2.742995048800164e-05 -4.237616063695435e-05 3.920661013899807e-05 -5.5496586633303e-05 5.337002247515805e-05 -6.618310529497645e-05 5.885635274374585e-05 -7.937413235720308e-05 7.763029257612687e-05 -9.754304827672304e-05 0.00010612738965224 -0.0001398559365372266 0.0001483030037912285 -0.000187933299571411 0.0002185870263842057 -0.0002764947731503677 0.0003383370467956161 -0.0004233276595461328 0.006677385192167587 0.009901279564784191 0.014975793752999 0.02009779104833513 0.0233459254495731 0.03017735414822676 0.03188720414890607 0.04000573782780117 0.04073307148458154 0.04961107534031408 0.05381359302081292 0.05786893591107787 0.06350598199398438 0.06728499406993062 0.06971289315492106 0.07556506826224359 0.07985734881608632 0.08396464478918336 0.08991522375743559 0.09253231774136397 0.09607925253355151 0.101606164637297 0.1061570916255141 0.1087588969323062 0.1129880917759692 0.118983365057325 0.1219060855413766 0.1256649415720249 0.1289202550275272 0.1325920260576419 0.1358401603017706 0.1395924441586858 0.14271153292053 0.1466594874649385 0.1494449930349038 0.1540074120891869 0.1548496265095773 0.1575820963704336 0.1612351354312003 0.1649637544656399 0.165039119730805 0.1699309245259162 0.1696472939974338 0.1743049232356611 0.1747702629503139 0.1782520970554122 0.1802631762101868 0.1818318487616812 0.1862054223964043 0.183822768320696 0.1886399392537785 0.1900299327704413 0.1901823651475417 0.1895623089464032 0.1914612342311113 0.1954426273106974 0.1947596744735965 0.1951347801922487 0.1948756898362966 0.1950906444545136 0.1948900844451517 0.1950792138423721 0.1949041111483786 0.1950839520993045 0.1948934631985723 0.1950887977660712 0.1948687229592743 0.1951354574767818 0.1948213843536933 0.1952053361785056 0.1946884081405149 0.1954732098979203 0.1934798770590177 0.1895688367201414 0.190162407836801 0.1899126960637927 0.1899214331727637 0.1852149601015372 0.184962289178853 0.1846645253008446 0.1796148723756199 0.1803760974669626 0.1749160123464839 0.1755636064681373 0.1706755692115738 0.1703678260036306 0.1667842762814243 0.1648591170732063 0.1631578761217134 0.1588999251784692 0.1556287641695808 0.154606856644844 0.1514151400410917 0.1476014747705291 0.1444330621799569 0.1407152296062482 0.1374386514626616 0.1338137261467064 0.1304559836631032 0.1269365541888866 0.1233948473355717 0.1202037051167311 0.115795801536456 0.1097272092877456 0.1077169394047134 0.102979139948385 0.1008504349093027 0.09550916019852267 0.09047327822574586 0.08710745232083747 0.08058041138899436 0.07821909162049935 0.0712627215536062 0.06851885141406334 0.06492102360572258 0.06065367010873923 0.05449520294836299 0.05265286977313195 0.04317042313244335 0.04065925118949183 0.03528196751216947 0.03032190207319004 0.02693763279182287 0.02030816858415319 0.01823980551672906 0.01068970196160996 0.009124762017773394 0.001514058503836347 -0.0002165731534859675 5.172488406977384e-05 -2.907320891448004e-05 2.170734918307651e-06 -6.942629052497524e-06 -1.261748938608994e-05 1.051524332992631e-05 -1.807534346871907e-05 7.470075252393904e-06 -1.855712163715015e-05 2.869155434219397e-06 -7.291309250657568e-06 -3.795400732936895e-07 -9.387494449996907e-06 -1.472493850162281e-06 -1.13678279971617e-05 5.306958962170632e-06 -1.152897383594685e-05 1.554372076136075e-06 -9.787390527505631e-06 -1.363887041203215e-06 -3.069341646871124e-06 -2.894282718394645e-06 -4.30607856954151e-06 2.132063863351024e-06 -4.615136324294983e-06 -1.064544422442175e-07 -3.288180456919179e-06 -2.005871499329592e-06 5.84197857548594e-07 -2.554421879856519e-06 -1.258902032568753e-08 -1.991523192610944e-06 -2.449527296935226e-07 -2.492834193659536e-07 0 0 0 0 0 0 0 0 0 0 0 0 0 0 0 0 0 0 0 0 0 0 0 0 0 0 0 0 0 0 0 0 0 0 0 0 0 0 0 0 0 0 0 0 0 0 0 0 0 0 0 0 0 0 0 0 0 0 0 0 0 0 0 0 0 0 0 0 0 0 0 0 0 0 0 0 0 0 0 0 0 0 0 0 0 0 0 0 0 0 0 0 0 0 0 0 0 0 0 0 0 0 0 0 0 0 0 0 0 0 0 0 0 0 0 0 0 0 0 0 0 0 0 0 0 0 0 0 0 0 0 0 0 0 0 0 0 0 0 0 0 0 0 0 0 0 0 0 0 0 0 0 0 0 0 0 0 0 0 0 0 0 0 0 0 0 0 0 0 0 0 0 0 0 0 0 0 0 0 0 0 0 0 0 0 0 0 0 0 0 0 0 0 0 0 0 0 0 0 0 0 0 0 0 0 0 0 0 0 0 0 0 0 0 0 0 0 0 -2.501518985459699e-06 3.913670298724621e-07 -5.122365710373123e-06 -8.601404042854976e-06 -3.911806648749577e-06 -1.178657641261827e-05 1.127723355034824e-06 -1.046094365539038e-05 -2.048006917038257e-05 -4.050558802986214e-06 -2.153263840724352e-05 5.871506103898507e-06 -1.602959437311779e-05 -2.919852087071022e-05 -4.986199726630365e-06 -2.616804703259087e-05 -3.83120641656885e-05 -1.496632272268669e-05 -4.187662204890174e-05 1.789298229467847e-06 -3.510050008701473e-05 -4.532051273790043e-05 -1.960846647453584e-05 -4.401755665182732e-05 1.258440462360236e-07 -2.979987061140486e-05 -6.574125110518858e-05 -5.339256080791267e-06 -6.44300911094791e-05 2.519008797327382e-05 -5.442964263913943e-05 -3.93215340002322e-05 -5.345274450981009e-05 4.231103762381613e-05 -0.0003127216231461197 0.001469629492619954 0.02747351406239602 0.05564142243167841 0.08325792532593757 0.11107889927869 0.1388671008662667 0.166623823292275 0.1944550168205266 0.2221840388917183 0.2499787913177965 0.2777464920361042 0.305554535070948 0.333304245102049 0.3611356421051647 0.3888140839933514 0.416717964871234 0.4443631094443442 0.4722729529337779 0.4999091414143332 0.5278559829136299 0.5554466707985857 0.5834486994098148 0.6109572048502876 0.6390518103610048 0.6664675946473638 0.6946727852421694 0.7219468916584458 0.7503373909682395 0.7773487788043426 0.8061360723144909 0.8324973505329488 0.8622022826875819 0.86317805084187 0.832324072083735 0.8062061410569875 0.7773105411691248 0.7503643618887847 0.7219246905197254 0.6946883312379208 0.6664546335462732 0.6390640991163768 0.6109436048746172 0.5834798437474316 0.5554117997437362 0.5278939131656198 0.4998692069183255 0.4723135814864883 0.4443463415409278 0.4167393815264822 0.3887853467658453 0.3611747490101467 0.3332153064656515 0.3056526147445829 0.2776404173202801 0.250091641402675 0.2220653994405637 0.1945366489422597 0.1665224443830861 0.138996233281082 0.1109108386788522 0.08354108227122367 0.05527744892335396 0.02804064706515305 -0.0003947776595672044 -0.02738969912769832 -0.05612037743876164 -0.08256947228040884 -0.1122020652823586 -0.1132644893680207 -0.08232411441327329 -0.05629520358729598 -0.02711469824766568 -0.001883934342170171 0.0004899197541619776 -0.0003772878963434 0.0002441907851622432 -0.0002515556471318348 0.0001434369419946543 -0.0001354723317616484 8.650431520242937e-05 -0.0001167377604361233 5.439132210259467e-05 -0.0001052696105434539 7.510462935173634e-05 -9.309000310261947e-05 4.527159959303995e-05 -7.679313873520252e-05 2.334215450382547e-05 -3.707058754238936e-05 9.411391675453289e-06 -3.554580889129986e-05 3.363640729306995e-06 -3.024802124726266e-05 1.117386320434222e-05 -2.403930545265493e-05 1.19832728027682e-06 -4.815813329288998e-06 -3.615894269722791e-06 2.52250648664797e-07 -1.133290353465896e-05 1.005415421093501e-05 -1.801400337229688e-05 2.366076809497198e-05 -2.113538223151405e-05 2.815284845851261e-05 -2.495538748413049e-05 2.742995048800164e-05 -4.237616063695435e-05 3.920661013899807e-05 -5.5496586633303e-05 5.337002247515805e-05 -6.618310529497645e-05 5.885635274374585e-05 -7.937413235720308e-05 7.763029257612687e-05 -9.754304827672304e-05 0.00010612738965224 -0.0001398559365372266 0.0001483030037912285 -0.000187933299571411 0.0002185870263842057 -0.0002764947731503677 0.0003383370467956161 -0.0004233276595461328 0.006677385192167587 0.009901279564784191 0.014975793752999 0.02009779104833513 0.0233459254495731 0.03017735414822676 0.03188720414890607 0.04000573782780117 0.04073307148458154 0.04961107534031408 0.05381359302081292 0.05786893591107787 0.06350598199398438 0.06728499406993062 0.06971289315492106 0.07556506826224359 0.07985734881608632 0.08396464478918336 0.08991522375743559 0.09253231774136397 0.09607925253355151 0.101606164637297 0.1061570916255141 0.1087588969323062 0.1129880917759692 0.118983365057325 0.1219060855413766 0.1256649415720249 0.1289202550275272 0.1325920260576419 0.1358401603017706 0.1395924441586858 0.14271153292053 0.1466594874649385 0.1494449930349038 0.1540074120891869 0.1548496265095773 0.1575820963704336 0.1612351354312003 0.1649637544656399 0.165039119730805 0.1699309245259162 0.1696472939974338 0.1743049232356611 0.1747702629503139 0.1782520970554122 0.1802631762101868 0.1818318487616812 0.1862054223964043 0.183822768320696 0.1886399392537785 0.1900299327704413 0.1901823651475417 0.1895623089464032 0.1914612342311113 0.1954426273106974 0.1947596744735965 0.1951347801922487 0.1948756898362966 0.1950906444545136 0.1948900844451517 0.1950792138423721 0.1949041111483786 0.1950839520993045 0.1948934631985723 0.1950887977660712 0.1948687229592743 0.1951354574767818 0.1948213843536933 0.1952053361785056 0.1946884081405149 0.1954732098979203 0.1934798770590177 0.1895688367201414 0.190162407836801 0.1899126960637927 0.1899214331727637 0.1852149601015372 0.184962289178853 0.1846645253008446 0.1796148723756199 0.1803760974669626 0.1749160123464839 0.1755636064681373 0.1706755692115738 0.1703678260036306 0.1667842762814243 0.1648591170732063 0.1631578761217134 0.1588999251784692 0.1556287641695808 0.154606856644844 0.1514151400410917 0.1476014747705291 0.1444330621799569 0.1407152296062482 0.1374386514626616 0.1338137261467064 0.1304559836631032 0.1269365541888866 0.1233948473355717 0.1202037051167311 0.115795801536456 0.1097272092877456 0.1077169394047134 0.102979139948385 0.1008504349093027 0.09550916019852267 0.09047327822574586 0.08710745232083747 0.08058041138899436 0.07821909162049935 0.0712627215536062 0.06851885141406334 0.06492102360572258 0.06065367010873923 0.05449520294836299 0.05265286977313195 0.04317042313244335 0.04065925118949183 0.03528196751216947 0.03032190207319004 0.02693763279182287 0.02030816858415319 0.01823980551672906 0.01068970196160996 0.009124762017773394 0.001514058503836347 -0.0002165731534859675 5.172488406977384e-05 -2.907320891448004e-05 2.170734918307651e-06 -6.942629052497524e-06 -1.261748938608994e-05 1.051524332992631e-05 -1.807534346871907e-05 7.470075252393904e-06 -1.855712163715015e-05 2.869155434219397e-06 -7.291309250657568e-06 -3.795400732936895e-07 -9.387494449996907e-06 -1.472493850162281e-06 -1.13678279971617e-05 5.306958962170632e-06 -1.152897383594685e-05 1.554372076136075e-06 -9.787390527505631e-06 -1.363887041203215e-06 -3.069341646871124e-06 -2.894282718394645e-06 -4.30607856954151e-06 2.132063863351024e-06 -4.615136324294983e-06 -1.064544422442175e-07 -3.288180456919179e-06 -2.005871499329592e-06 5.84197857548594e-07 -2.554421879856519e-06 -1.258902032568753e-08 -1.991523192610944e-06 -2.449527296935226e-07 -2.492834193659536e-07 0 0 0 0 0 0 0 0 0 0 0 0 0 0 0 0 0 0 0 0 0 0 0 0 0 0 0 0 0 0 0 0 0 0 0 0 0 0 0 0 0 0 0 0 0 0 0 0 0 0 0 0 0 0 0 0 0 0 0 0 0 0 0 0 0 0 0 0 0 0 0 0 0 0 0 0 0 0 0 0 0 0 0 0 0 0 0 0 0 0 0 0 0 0 0 0 0 0 0 0 0 0 0 0 0 0 0 0 0 0 0 0 0 0 0 0 0 0 0 0 0 0 0 0 0 0 0 0 0 0 0 0 0 0 0 0 0 0 0 0 0 0 0 0 0 0 0 0 0 0 0 0 0 0 0 0 0 0 0 0 0 0 0 0 0 0 0 0 0 0 0 0 0 0 0 0 0 0 0 0 0 0 0 0 0 0 0 0 0 0 0 0 0 0 0 0 0 0 0 0 0 0 0 0 0 0 0 0 0 0 0 0 0 0 0 0 0 0 -2.501518985459699e-06 3.913670298724621e-07 -5.122365710373123e-06 -8.601404042854976e-06 -3.911806648749577e-06 -1.178657641261827e-05 1.127723355034824e-06 -1.046094365539038e-05 -2.048006917038257e-05 -4.050558802986214e-06 -2.153263840724352e-05 5.871506103898507e-06 -1.602959437311779e-05 -2.919852087071022e-05 -4.986199726630365e-06 -2.616804703259087e-05 -3.83120641656885e-05 -1.496632272268669e-05 -4.187662204890174e-05 1.789298229467847e-06 -3.510050008701473e-05 -4.532051273790043e-05 -1.960846647453584e-05 -4.401755665182732e-05 1.258440462360236e-07 -2.979987061140486e-05 -6.574125110518858e-05 -5.339256080791267e-06 -6.44300911094791e-05 2.519008797327382e-05 -5.442964263913943e-05 -3.93215340002322e-05 -5.345274450981009e-05 4.231103762381613e-05 -0.0003127216231461197 0.001469629492619954 0.02747351406239602 0.05564142243167841 0.08325792532593757 0.11107889927869 0.1388671008662667 0.166623823292275 0.1944550168205266 0.2221840388917183 0.2499787913177965 0.2777464920361042 0.305554535070948 0.333304245102049 0.3611356421051647 0.3888140839933514 0.416717964871234 0.4443631094443442 0.4722729529337779 0.4999091414143332 0.5278559829136299 0.5554466707985857 0.5834486994098148 0.6109572048502876 0.6390518103610048 0.6664675946473638 0.6946727852421694 0.7219468916584458 0.7503373909682395 0.7773487788043426 0.8061360723144909 0.8324973505329488 0.8622022826875819 0.86317805084187 0.832324072083735 0.8062061410569875 0.7773105411691248 0.7503643618887847 0.7219246905197254 0.6946883312379208 0.6664546335462732 0.6390640991163768 0.6109436048746172 0.5834798437474316 0.5554117997437362 0.5278939131656198 0.4998692069183255 0.4723135814864883 0.4443463415409278 0.4167393815264822 0.3887853467658453 0.3611747490101467 0.3332153064656515 0.3056526147445829 0.2776404173202801 0.250091641402675 0.2220653994405637 0.1945366489422597 0.1665224443830861 0.138996233281082 0.1109108386788522 0.08354108227122367 0.05527744892335396 0.02804064706515305 -0.0003947776595672044 -0.02738969912769832 -0.05612037743876164 -0.08256947228040884 -0.1122020652823586 -0.1132644893680207 -0.08232411441327329 -0.05629520358729598 -0.02711469824766568 -0.001883934342170171 0.0004899197541619776 -0.0003772878963434 0.0002441907851622432 -0.0002515556471318348 0.0001434369419946543 -0.0001354723317616484 8.650431520242937e-05 -0.0001167377604361233 5.439132210259467e-05 -0.0001052696105434539 7.510462935173634e-05 -9.309000310261947e-05 4.527159959303995e-05 -7.679313873520252e-05 2.334215450382547e-05 -3.707058754238936e-05 9.411391675453289e-06 -3.554580889129986e-05 3.363640729306995e-06 -3.024802124726266e-05 1.117386320434222e-05 -2.403930545265493e-05 1.19832728027682e-06 -4.815813329288998e-06 -3.615894269722791e-06 2.52250648664797e-07 -1.133290353465896e-05 1.005415421093501e-05 -1.801400337229688e-05 2.366076809497198e-05 -2.113538223151405e-05 2.815284845851261e-05 -2.495538748413049e-05 2.742995048800164e-05 -4.237616063695435e-05 3.920661013899807e-05 -5.5496586633303e-05 5.337002247515805e-05 -6.618310529497645e-05 5.885635274374585e-05 -7.937413235720308e-05 7.763029257612687e-05 -9.754304827672304e-05 0.00010612738965224 -0.0001398559365372266 0.0001483030037912285 -0.000187933299571411 0.0002185870263842057 -0.0002764947731503677 0.0003383370467956161 -0.0004233276595461328 0.006677385192167587 0.009901279564784191 0.014975793752999 0.02009779104833513 0.0233459254495731 0.03017735414822676 0.03188720414890607 0.04000573782780117 0.04073307148458154 0.04961107534031408 0.05381359302081292 0.05786893591107787 0.06350598199398438 0.06728499406993062 0.06971289315492106 0.07556506826224359 0.07985734881608632 0.08396464478918336 0.08991522375743559 0.09253231774136397 0.09607925253355151 0.101606164637297 0.1061570916255141 0.1087588969323062 0.1129880917759692 0.118983365057325 0.1219060855413766 0.1256649415720249 0.1289202550275272 0.1325920260576419 0.1358401603017706 0.1395924441586858 0.14271153292053 0.1466594874649385 0.1494449930349038 0.1540074120891869 0.1548496265095773 0.1575820963704336 0.1612351354312003 0.1649637544656399 0.165039119730805 0.1699309245259162 0.1696472939974338 0.1743049232356611 0.1747702629503139 0.1782520970554122 0.1802631762101868 0.1818318487616812 0.1862054223964043 0.183822768320696 0.1886399392537785 0.1900299327704413 0.1901823651475417 0.1895623089464032 0.1914612342311113 0.1954426273106974 0.1947596744735965 0.1951347801922487 0.1948756898362966 0.1950906444545136 0.1948900844451517 0.1950792138423721 0.1949041111483786 0.1950839520993045 0.1948934631985723 0.1950887977660712 0.1948687229592743 0.1951354574767818 0.1948213843536933 0.1952053361785056 0.1946884081405149 0.1954732098979203 0.1934798770590177 0.1895688367201414 0.190162407836801 0.1899126960637927 0.1899214331727637 0.1852149601015372 0.184962289178853 0.1846645253008446 0.1796148723756199 0.1803760974669626 0.1749160123464839 0.1755636064681373 0.1706755692115738 0.1703678260036306 0.1667842762814243 0.1648591170732063 0.1631578761217134 0.1588999251784692 0.1556287641695808 0.154606856644844 0.1514151400410917 0.1476014747705291 0.1444330621799569 0.1407152296062482 0.1374386514626616 0.1338137261467064 0.1304559836631032 0.1269365541888866 0.1233948473355717 0.1202037051167311 0.115795801536456 0.1097272092877456 0.1077169394047134 0.102979139948385 0.1008504349093027 0.09550916019852267 0.09047327822574586 0.08710745232083747 0.08058041138899436 0.07821909162049935 0.0712627215536062 0.06851885141406334 0.06492102360572258 0.06065367010873923 0.05449520294836299 0.05265286977313195 0.04317042313244335 0.04065925118949183 0.03528196751216947 0.03032190207319004 0.02693763279182287 0.02030816858415319 0.01823980551672906 0.01068970196160996 0.009124762017773394 0.001514058503836347 -0.0002165731534859675 5.172488406977384e-05 -2.907320891448004e-05 2.170734918307651e-06 -6.942629052497524e-06 -1.261748938608994e-05 1.051524332992631e-05 -1.807534346871907e-05 7.470075252393904e-06 -1.855712163715015e-05 2.869155434219397e-06 -7.291309250657568e-06 -3.795400732936895e-07 -9.387494449996907e-06 -1.472493850162281e-06 -1.13678279971617e-05 5.306958962170632e-06 -1.152897383594685e-05 1.554372076136075e-06 -9.787390527505631e-06 -1.363887041203215e-06 -3.069341646871124e-06 -2.894282718394645e-06 -4.30607856954151e-06 2.132063863351024e-06 -4.615136324294983e-06 -1.064544422442175e-07 -3.288180456919179e-06 -2.005871499329592e-06 5.84197857548594e-07 -2.554421879856519e-06 -1.258902032568753e-08 -1.991523192610944e-06 -2.449527296935226e-07 -2.492834193659536e-07 0 0 0 0 0 0 0 0 0 0 0 0 0 0 0 0 0 0 0 0 0 0 0 0 0 0 0 0 0 0 0 0 0 0 0 0 0 0 0 0 0 0 0 0 0 0 0 0 0 0 0 0 0 0 0 0 0 0 0 0 0 0 0 0 0 0 0 0 0 0 0 0 0 0 0 0 0 0 0 0 0 0 0 0 0 0 0 0 0 0 0 0 0 0 0 0 0 0 0 0 0 0 0 0 0 0 0 0 0 0 0 0 0 0 0 0 0 0 0 0 0 0 0 0 0 0 0 0 0 0 0 0 0 0 0 0 0 0 0 0 0 0 0 0 0 0 0 0 0 0 0 0 0 0 0 0 0 0 0 0 0 0 0 0 0 0 0 0 0 0 0 0 0 0 0 0 0 0 0 0 0 0 0 0 0 0 0 0 0 0 0 0 0 0 0 0 0 0 0 0 0 0 0 0 0 0 0 0 0 0 0 0 0 0 0 0 0 0 -2.501518985459699e-06 3.913670298724621e-07 -5.122365710373123e-06 -8.601404042854976e-06 -3.911806648749577e-06 -1.178657641261827e-05 1.127723355034824e-06 -1.046094365539038e-05 -2.048006917038257e-05 -4.050558802986214e-06 -2.153263840724352e-05 5.871506103898507e-06 -1.602959437311779e-05 -2.919852087071022e-05 -4.986199726630365e-06 -2.616804703259087e-05 -3.83120641656885e-05 -1.496632272268669e-05 -4.187662204890174e-05 1.789298229467847e-06 -3.510050008701473e-05 -4.532051273790043e-05 -1.960846647453584e-05 -4.401755665182732e-05 1.258440462360236e-07 -2.979987061140486e-05 -6.574125110518858e-05 -5.339256080791267e-06 -6.44300911094791e-05 2.519008797327382e-05 -5.442964263913943e-05 -3.93215340002322e-05 -5.345274450981009e-05 4.231103762381613e-05 -0.0003127216231461197 0.001469629492619954 0.02747351406239602 0.05564142243167841 0.08325792532593757 0.11107889927869 0.1388671008662667 0.166623823292275 0.1944550168205266 0.2221840388917183 0.2499787913177965 0.2777464920361042 0.305554535070948 0.333304245102049 0.3611356421051647 0.3888140839933514 0.416717964871234 0.4443631094443442 0.4722729529337779 0.4999091414143332 0.5278559829136299 0.5554466707985857 0.5834486994098148 0.6109572048502876 0.6390518103610048 0.6664675946473638 0.6946727852421694 0.7219468916584458 0.7503373909682395 0.7773487788043426 0.8061360723144909 0.8324973505329488 0.8622022826875819 0.86317805084187 0.832324072083735 0.8062061410569875 0.7773105411691248 0.7503643618887847 0.7219246905197254 0.6946883312379208 0.6664546335462732 0.6390640991163768 0.6109436048746172 0.5834798437474316 0.5554117997437362 0.5278939131656198 0.4998692069183255 0.4723135814864883 0.4443463415409278 0.4167393815264822 0.3887853467658453 0.3611747490101467 0.3332153064656515 0.3056526147445829 0.2776404173202801 0.250091641402675 0.2220653994405637 0.1945366489422597 0.1665224443830861 0.138996233281082 0.1109108386788522 0.08354108227122367 0.05527744892335396 0.02804064706515305 -0.0003947776595672044 -0.02738969912769832 -0.05612037743876164 -0.08256947228040884 -0.1122020652823586 -0.1132644893680207 -0.08232411441327329 -0.05629520358729598 -0.02711469824766568 -0.001883934342170171 0.0004899197541619776 -0.0003772878963434 0.0002441907851622432 -0.0002515556471318348 0.0001434369419946543 -0.0001354723317616484 8.650431520242937e-05 -0.0001167377604361233 5.439132210259467e-05 -0.0001052696105434539 7.510462935173634e-05 -9.309000310261947e-05 4.527159959303995e-05 -7.679313873520252e-05 2.334215450382547e-05 -3.707058754238936e-05 9.411391675453289e-06 -3.554580889129986e-05 3.363640729306995e-06 -3.024802124726266e-05 1.117386320434222e-05 -2.403930545265493e-05 1.19832728027682e-06 -4.815813329288998e-06 -3.615894269722791e-06 2.52250648664797e-07 -1.133290353465896e-05 1.005415421093501e-05 -1.801400337229688e-05 2.366076809497198e-05 -2.113538223151405e-05 2.815284845851261e-05 -2.495538748413049e-05 2.742995048800164e-05 -4.237616063695435e-05 3.920661013899807e-05 -5.5496586633303e-05 5.337002247515805e-05 -6.618310529497645e-05 5.885635274374585e-05 -7.937413235720308e-05 7.763029257612687e-05 -9.754304827672304e-05 0.00010612738965224 -0.0001398559365372266 0.0001483030037912285 -0.000187933299571411 0.0002185870263842057 -0.0002764947731503677 0.0003383370467956161 -0.0004233276595461328 0.006677385192167587 0.009901279564784191 0.014975793752999 0.02009779104833513 0.0233459254495731 0.03017735414822676 0.03188720414890607 0.04000573782780117 0.04073307148458154 0.04961107534031408 0.05381359302081292 0.05786893591107787 0.06350598199398438 0.06728499406993062 0.06971289315492106 0.07556506826224359 0.07985734881608632 0.08396464478918336 0.08991522375743559 0.09253231774136397 0.09607925253355151 0.101606164637297 0.1061570916255141 0.1087588969323062 0.1129880917759692 0.118983365057325 0.1219060855413766 0.1256649415720249 0.1289202550275272 0.1325920260576419 0.1358401603017706 0.1395924441586858 0.14271153292053 0.1466594874649385 0.1494449930349038 0.1540074120891869 0.1548496265095773 0.1575820963704336 0.1612351354312003 0.1649637544656399 0.165039119730805 0.1699309245259162 0.1696472939974338 0.1743049232356611 0.1747702629503139 0.1782520970554122 0.1802631762101868 0.1818318487616812 0.1862054223964043 0.183822768320696 0.1886399392537785 0.1900299327704413 0.1901823651475417 0.1895623089464032 0.1914612342311113 0.1954426273106974 0.1947596744735965 0.1951347801922487 0.1948756898362966 0.1950906444545136 0.1948900844451517 0.1950792138423721 0.1949041111483786 0.1950839520993045 0.1948934631985723 0.1950887977660712 0.1948687229592743 0.1951354574767818 0.1948213843536933 0.1952053361785056 0.1946884081405149 0.1954732098979203 0.1934798770590177 0.1895688367201414 0.190162407836801 0.1899126960637927 0.1899214331727637 0.1852149601015372 0.184962289178853 0.1846645253008446 0.1796148723756199 0.1803760974669626 0.1749160123464839 0.1755636064681373 0.1706755692115738 0.1703678260036306 0.1667842762814243 0.1648591170732063 0.1631578761217134 0.1588999251784692 0.1556287641695808 0.154606856644844 0.1514151400410917 0.1476014747705291 0.1444330621799569 0.1407152296062482 0.1374386514626616 0.1338137261467064 0.1304559836631032 0.1269365541888866 0.1233948473355717 0.1202037051167311 0.115795801536456 0.1097272092877456 0.1077169394047134 0.102979139948385 0.1008504349093027 0.09550916019852267 0.09047327822574586 0.08710745232083747 0.08058041138899436 0.07821909162049935 0.0712627215536062 0.06851885141406334 0.06492102360572258 0.06065367010873923 0.05449520294836299 0.05265286977313195 0.04317042313244335 0.04065925118949183 0.03528196751216947 0.03032190207319004 0.02693763279182287 0.02030816858415319 0.01823980551672906 0.01068970196160996 0.009124762017773394 0.001514058503836347 -0.0002165731534859675 5.172488406977384e-05 -2.907320891448004e-05 2.170734918307651e-06 -6.942629052497524e-06 -1.261748938608994e-05 1.051524332992631e-05 -1.807534346871907e-05 7.470075252393904e-06 -1.855712163715015e-05 2.869155434219397e-06 -7.291309250657568e-06 -3.795400732936895e-07 -9.387494449996907e-06 -1.472493850162281e-06 -1.13678279971617e-05 5.306958962170632e-06 -1.152897383594685e-05 1.554372076136075e-06 -9.787390527505631e-06 -1.363887041203215e-06 -3.069341646871124e-06 -2.894282718394645e-06 -4.30607856954151e-06 2.132063863351024e-06 -4.615136324294983e-06 -1.064544422442175e-07 -3.288180456919179e-06 -2.005871499329592e-06 5.84197857548594e-07 -2.554421879856519e-06 -1.258902032568753e-08 -1.991523192610944e-06 -2.449527296935226e-07 -2.492834193659536e-07 0 0 0 0 0 0 0 0 0 0 0 0 0 0 0 0 0 0 0 0 0 0 0 0 0 0 0 0 0 0 0 0 0 0 0 0 0 0 0 0 0 0 0 0 0 0 0 0 0 0 0 0 0 0 0 0 0 0 0 0 0 0 0 0 0 0 0 0 0 0 0 0 0 0 0 0 0 0 0 0 0 0 0 0 0 0 0 0 0 0 0 0 0 0 0 0 0 0 0 0 0 0 0 0 0 0 0 0 0 0 0 0 0 0 0 0 0 0 0 0 0 0 0 0 0 0 0 0 0 0 0 0 0 0 0 0 0 0 0 0 0 0 0 0 0 0 0 0 0 0 0 0 0 0 0 0 0 0 0 0 0 0 0 0 0 0 0 0 0 0 0 0 0 0 0 0 0 0 0 0 0 0 0 0 0 0 0 0 0 0 0 0 0 0 0 0 0 0 0 0 0 0 0 0 0 0 0 0 0 0 0 0 0 0 0 0 0 0 -2.501518985459699e-06 3.913670298724621e-07 -5.122365710373123e-06 -8.601404042854976e-06 -3.911806648749577e-06 -1.178657641261827e-05 1.127723355034824e-06 -1.046094365539038e-05 -2.048006917038257e-05 -4.050558802986214e-06 -2.153263840724352e-05 5.871506103898507e-06 -1.602959437311779e-05 -2.919852087071022e-05 -4.986199726630365e-06 -2.616804703259087e-05 -3.83120641656885e-05 -1.496632272268669e-05 -4.187662204890174e-05 1.789298229467847e-06 -3.510050008701473e-05 -4.532051273790043e-05 -1.960846647453584e-05 -4.401755665182732e-05 1.258440462360236e-07 -2.979987061140486e-05 -6.574125110518858e-05 -5.339256080791267e-06 -6.44300911094791e-05 2.519008797327382e-05 -5.442964263913943e-05 -3.93215340002322e-05 -5.345274450981009e-05 4.231103762381613e-05 -0.0003127216231461197 0.001469629492619954 0.02747351406239602 0.05564142243167841 0.08325792532593757 0.11107889927869 0.1388671008662667 0.166623823292275 0.1944550168205266 0.2221840388917183 0.2499787913177965 0.2777464920361042 0.305554535070948 0.333304245102049 0.3611356421051647 0.3888140839933514 0.416717964871234 0.4443631094443442 0.4722729529337779 