# Created by Octave 4.2.2, Mon Sep 16 19:50:26 2019 -03 <mauricio@mauricio-PC>
# name: ecg
# type: matrix
# rows: 1
# columns: 21600
 0.0002086933724040401 0.0145837229798486 0.02377567246224466 0.03702840931619804 0.04771011909802358 0.05933788515270132 0.07170541818134502 0.0817003768019112 0.09555545811923451 0.1042771901297328 0.1190967254384497 0.1272387768602723 0.1422253898179151 0.1506346297338174 0.1649044987776049 0.1744603794058193 0.1871735174881529 0.198716069180244 0.2088543171381063 0.2250892535939245 0.2334729153785568 0.2472754732308078 0.2575369664433968 0.2695241897093958 0.2815530594588055 0.2918744580185385 0.3053822905658393 0.3145091304314077 0.3288547843637272 0.3375712369396093 0.3517864459286952 0.3612010381733786 0.3620612359451689 0.3422893718345787 0.3280744337931671 0.3112587295871844 0.2940645984631018 0.2821433248227928 0.2630788828489412 0.2487941310442164 0.2315821573398883 0.2154820357958394 0.2000528735850201 0.1822526473592401 0.1683513806536707 0.1492853848641419 0.1363343041431421 0.1166825346109944 0.1039058851233252 0.08449699141950237 0.07106354361534116 0.05273809187565019 0.0377996133143424 0.02142976777917307 0.003930901844621412 -0.007780220600377115 -0.02699444401303807 -0.04116938365959915 -0.05844552711609989 -0.07453169294877526 -0.08991418225343223 -0.1078120986431016 -0.1215726259087355 -0.1408403092642208 -0.1535147096761242 -0.1735483954710007 -0.1857462168804687 -0.2059940602513319 -0.2061498271120834 -0.1950290386860344 -0.1831717815657457 -0.1709416898883891 -0.162054222403227 -0.1585618603271672 -0.1644488981464881 -0.1643059305807831 -0.1680631731185476 -0.1699127394639364 -0.1717501346552732 -0.1754051415393278 -0.1756486918337032 -0.1806094266128021 -0.1798698684297201 -0.1854482250290946 -0.1845057008421639 -0.1898677374570883 -0.1895497305357815 -0.1938527305243677 -0.1950400149870507 -0.1973738100999531 -0.2011269792454105 -0.1987995571555567 -0.204272346145673 -0.20442048329229 -0.2079424230365443 -0.2099816782521498 -0.2116820346037503 -0.2154477222974135 -0.2155878042591947 -0.2206350700063299 -0.2198111441222433 -0.2254898353662896 -0.2244485038440736 -0.2298935628859736 -0.2294971413684007 -0.2338666458590118 -0.2350149332817906 -0.2373817188150856 -0.2411009650931734 -0.2388061716794475 -0.2442473065206213 -0.2444341377776268 -0.2479206454037474 -0.2499896003464525 -0.2516722937965079 -0.2554542728107704 -0.2555747786548538 -0.260646364747937 -0.2597896327800651 -0.2655196794922721 -0.2644012556128087 -0.2699739476212146 -0.2693489161123742 -0.2742018307072897 -0.2736379562358098 -0.2718898784788694 -0.2759151420545356 -0.2681094971955271 -0.2747760500383516 -0.2689895618339206 -0.2737217938606785 -0.2702154415645027 -0.2723637836711444 -0.2716839046647834 -0.2708896837408236 -0.2730580844720026 -0.269642936202756 -0.2741017817866142 -0.2689151914810871 -0.2744913245801983 -0.2688782539144836 -0.2740947271312699 -0.2697292064899169 -0.2727663238246507 -0.2752798639360917 -0.2686463286227172 -0.2742676600301793 -0.2694937655833333 -0.2731706744725906 -0.2708645613667205 -0.2714148683976857 -0.2755374398298162 -0.2709520783963724 -0.2754927908560943 -0.2746979666616564 -0.2751098477438394 -0.2750166323783627 -0.2786428672630112 -0.2746719287200728 -0.2783094018141603 -0.281193065225802 -0.2763164807020056 -0.2793416796750245 -0.2795776397880931 -0.2836755225464833 -0.2799528547995594 -0.2826874540621123 -0.285021464486413 -0.2869287086951832 -0.2873296551920859 -0.2848903582654346 -0.2911112065274015 -0.2893332339078679 -0.2961300893837167 -0.2912764766473703 -0.2943423998855865 -0.29489711270473 -0.2983920287978452 -0.3007534988493449 -0.2991632664896489 -0.3049129881220529 -0.3042515585666223 -0.3089700092736622 -0.3096009222010764 -0.3127844498697606 -0.315054548508296 -0.3166246952411661 -0.3204554501577773 -0.3205883515581193 -0.325571263047757 -0.3248723330563614 -0.3303750346444202 -0.3295885448019936 -0.3346879376458015 -0.3347490335888818 -0.3384582511778481 -0.340719568758001 -0.3391636701129758 -0.3449219881408159 -0.3442095750855194 -0.3491063711813576 -0.3543161403387014 -0.3578972249395316 -0.3599501801072347 -0.361727428794027 -0.3653549492555697 -0.3703082432180944 -0.375535626146106 -0.3750369054989162 -0.379935064864301 -0.3826103898794773 -0.3903190441778802 -0.3892826879161684 -0.3940226194445764 -0.4002872761712611 -0.3995434908115501 -0.4043420384688428 -0.4062820103193331 -0.4146561429437601 -0.4139151760889084 -0.4204681588465402 -0.425735535231133 -0.4259242284165147 -0.4338539596157033 -0.4361044613740487 -0.4400120932041919 -0.4439673241441532 -0.4503585723121367 -0.4522371540945698 -0.4607478041256842 -0.4586262407053313 -0.4679076948382804 -0.4701160798592685 -0.4723527773735173 -0.4798538381724177 -0.4811333724186729 -0.4894405092683908 -0.4903058130707826 -0.4985641935327381 -0.4998498075573712 -0.5074049735720433 -0.509720211510451 -0.5159571861557511 -0.5196948670044281 -0.5244370128564281 -0.5297413349371352 -0.5330499821085941 -0.5395147343103971 -0.5419424039924077 -0.5488055662523152 -0.5516917721205283 -0.5549675800227325 -0.5593851711486498 -0.559602040565073 -0.5636623492881593 -0.5648326309282085 -0.5675473934914892 -0.5702220416057473 -0.5714533473582518 -0.5755856339868571 -0.5754502294947752 -0.5806533025106602 -0.5797583209727898 -0.5854553285711436 -0.5844919028514621 -0.5897558618133107 -0.58964129182963 -0.5935195212356217 -0.5956351930471898 -0.5942046780647966 -0.59983464234408 -0.5992664814128431 -0.6039123941919787 -0.6046221681912551 -0.6077118964187812 -0.6100694688312818 -0.6115803734462423 -0.6154675677368444 -0.6155469495765576 -0.6205552001793119 -0.619832565522194 -0.6253829805141793 -0.6245492171714789 -0.629696561391302 -0.6296813396912854 -0.633470372911914 -0.6356716591381528 -0.6341607755675184 -0.6398608513162232 -0.639231196354679 -0.6439303631296251 -0.6446000374225326 -0.6477197174997643 -0.650051937787769 -0.6515896955026266 -0.6554542705106022 -0.6555512637878708 -0.6605415655411634 -0.6598334412123529 -0.6653774016538704 -0.6645482390517359 -0.6696921275952897 -0.6696753895820586 -0.6734670251090711 -0.6756694671773554 -0.6741546754511075 -0.6798581876916484 -0.6792250962382684 -0.6839278488437742 -0.6845974575447541 -0.6877134690381052 -0.690049283434501 -0.6915873706029751 -0.6954518411027528 -0.6955486373000437 -0.7005352673805801 -0.6998308147245255 -0.7053749722460203 -0.7045459141520842 -0.7096894732420216 -0.7096691411203992 -0.7134644452312932 -0.7156669528915039 -0.7141485753346966 -0.7198555240670744 -0.719218996121857 -0.7239253345579224 -0.7245948776669767 -0.7277072205764458 -0.7300466290812332 -0.7315850457033235 -0.7354494116949032 -0.7355460108122167 -0.7405289692199963 -0.7398281882366988 -0.7453725428381708 -0.7445435892524318 -0.7496868188887538 -0.7496628926587405 -0.7534618653535148 -0.755664438605653 -0.7541424752182864 -0.7598528604425006 -0.7592128960054464 -0.7639228202720713 -0.7645922977891983 -0.7677009721147868 -0.7700439747279655 -0.7715827208036722 -0.7754469822870534 -0.7755433843243899 -0.7805226710594123 -0.779825561748872 -0.7853701134303217 -0.7845412643527808 -0.789684164535486 -0.7896566441970814 -0.7934592854757366 -0.795661924319801 -0.7941363751018751 -0.7998501968179267 -0.7992067958890354 -0.8039203059862199 -0.8045897179114206 -0.8076947236531281 -0.8100413203746978 -0.8115803959040205 -0.8154445528792041 -0.8155407578365631 -0.8205163728988285 -0.8198229352610452 -0.825367684022472 -0.8245389394531286 -0.8296815101822185 -0.829650395735422 -0.833456705597959 -0.8356594100339498 -0.834130274985464 -0.8398475331933519 -0.8392006957726247 -0.8439177917003685 -0.8445871380336424 -0.8476884751914688 -0.8500386660214299 -0.8515780710043689 -0.8554421234713543 -0.8555381313487366 -0.8605100747382448 -0.859820308773218 -0.8653652546146224 -0.8645366145534776 -0.8696788558289507 -0.8696441472737629 -0.8734541257201811 -0.8756568957480986 -0.8741241748690539 -0.8798448695687778 -0.8791945956562143 -0.8839152774145168 -0.8845845581558643 -0.8876822267298097 -0.8900360116681624 -0.8915757461047171 -0.895439694063505 -0.8955355048609096 -0.9005037765776608 -0.8998176822853914 -0.905362825206773 -0.9045342896538257 -0.9096762014756828 -0.9096378988121037 -0.9134515458424033 -0.9156543814622465 -0.9141180747526428 -0.9198422059442034 -0.9191884955398033 -0.9239127631286652 -0.9245819782780863 -0.9276759782681506 -0.9300333573148947 -0.9315734212050657 -0.9354372646556551 -0.9355328783730824 -0.9404974784170775 -0.9398150557975644 -0.9453603957989232 -0.9445319647541743 -0.9496735471224158 -0.9496316503504453 -0.9534489659646255 -0.9556518671763956 -0.9541119746362324 -0.9598395423196299 -0.9591823954233928 -0.9639102488428136 -0.9645793984003083 -0.967669729806491 -0.9700307029616266 -0.9715710963054137 -0.9754348352478054 -0.9755302518852551 -0.9804911802564937 -0.9798124293097379 -0.985357966391074 -0.984529639854523 -0.9896708927691472 -0.9896254018887859 -0.9934463860868469 -0.9956493528905447 -0.9941058745198217 -0.9998368786950559 -0.9991762953069817 -1.003907734556962 -1.00457681852253 -1.007663481344832 -1.010028048608359 -1.011568771405762 -1.015432405839956 -1.015527625397429 -1.02048488209591 -1.019809802821911 -1.025355536983224 -1.024527314954871 -1.02966823841588 -1.029619153427127 -1.033443806209069 -1.035646838604693 -1.03409977440341 -1.039834215070481 -1.039170195190571 -1.043905220271111 -1.044574238644753 -1.047657232883173 -1.050025394255091 -1.051566446506111 -1.055429976432107 -1.055524998909602 -1.060478583935326 -1.059807176334084 -1.065353107575374 -1.06452499005522 -1.069665584062612 -1.069612904965467 -1.07344122633129 -1.075644324318841 -1.074093674287 -1.079831551445906 -1.079164095074161 -1.08390270598526 -1.084571658766975 -1.087650984421513 -1.090022739901824 -1.091564121606459 -1.095427547024257 -1.095522372421776 -1.100472285774742 -1.099804549846257 -1.105350678167525 -1.104522665155567 -1.109662929709345 -1.109606656503808 -1.113438646453513 -1.11564181003299 -1.114087574170588 -1.119828887821333 -1.119159245717242 -1.123899996015893 -1.124571640072051 -1.127649036661876 -1.13002204145188 -1.131567689995015 -1.135424553754729 -1.135524976405776 -1.140476227648744 -1.139803948637832 -1.145359015078879 -1.144517404502865 -1.149668290153263 -1.149615007302585 -1.153438559675599 -1.155652379770653 -1.154100630086261 -1.159833707358121 -1.159172833152364 -1.163896782764443 -1.164584049261463 -1.167661147754565 -1.170027235428525 -1.171581480585483 -1.175422625286536 -1.175532019381427 -1.180492560079127 -1.179801966498644 -1.185378034397381 -1.184505420312278 -1.189684835824128 -1.18961382034749 -1.193460213070212 -1.195615625942475 -1.19423173474934 -1.199088745825875 -1.18540903769373 -1.176074451911867 -1.162934956470671 -1.152092789397192 -1.140581226408886 -1.128245235261367 -1.118192750390445 -1.104422473512435 -1.095463995634093 -1.080923424364725 -1.072566122408503 -1.057863567905588 -1.049087145596959 -1.035180869122156 -1.025071924384562 -1.013452712453264 -0.9979327973544683 -0.989866326240444 -0.9752117031517017 -0.9661693134425604 -0.9528369895509553 -0.9421473881497338 -0.9304862173082502 -0.9183210246841708 -0.9080814367717737 -0.8945384206412446 -0.885278397648288 -0.8711196544927782 -0.8622729243788808 -0.8482646902904866 -0.8385511709524817 -0.8379926372362374 -0.8572662909005335 -0.8725286823610904 -0.8854079031203835 -0.9046360523786435 -0.9181712492322438 -0.9365459689370418 -0.9513314426049478 -0.9680876925550304 -0.9845376656981767 -0.999812575234485 -1.017709500113141 -1.031562283399831 -1.050506191512661 -1.063634626663879 -1.083165360357813 -1.096141349894069 -1.115256984560082 -1.12898803969044 -1.146818093831798 -1.16280293123144 -1.175236864928396 -1.194769748997125 -1.208094794655415 -1.226619295799021 -1.241294957308763 -1.258115377011019 -1.274551394442791 -1.289779631072938 -1.307774246115482 -1.321486289962237 -1.340631885641024 -1.353483640483145 -1.373396290439809 -1.385793451897862 -1.405748036230918 -1.406201410417864 -1.394585224393482 -1.383774326111529 -1.367608322595957 -1.360754873244973 -1.358876434382204 -1.364073749932472 -1.364431504229947 -1.367733023013466 -1.369932440957953 -1.371615583474779 -1.375367289011709 -1.375562355887205 -1.380401002989605 -1.379838799236741 -1.385296119997902 -1.384552935859557 -1.389621713436673 -1.389601313841562 -1.393408916231814 -1.395642559532834 -1.394040442807521 -1.399827630087156 -1.399114131210594 -1.403897197931655 -1.404546056941454 -1.407612272931463 -1.410001379746165 -1.411547483423256 -1.415409869769795 -1.415501468312697 -1.420426646383133 -1.419780074929264 -1.425337730335097 -1.424495738861467 -1.429647538865559 -1.429548724674182 -1.433422831566459 -1.435617477827574 -1.434048351522654 -1.439801615934919 -1.439120745734484 -1.443872158306604 -1.444559711426791 -1.447590495298667 -1.450009301840468 -1.451537742616014 -1.455416420283151 -1.455488442708356 -1.46043794112474 -1.459758563587086 -1.46536757446108 -1.464448490630203 -1.4697279236008 -1.469400499418156 -1.473758016414738 -1.474240500781594 -1.468556511186437 -1.474615046208026 -1.468425139916578 -1.474399439928282 -1.46911707095697 -1.473389144638124 -1.470238306262916 -1.472225293667054 -1.471650889983841 -1.470797474769293 -1.472856718969629 -1.469603458927516 -1.473959616032218 -1.46895075669815 -1.474258920446531 -1.468914024769344 -1.473669186649859 -1.470310716380113 -1.469457087877639 -1.473952160400007 -1.468993488736109 -1.473855122440415 -1.469662197887867 -1.472791410216509 -1.470940575526351 -1.471215653392844 -1.475574043140469 -1.470779644546064 -1.475384560514252 -1.474549224945806 -1.475097796562123 -1.474893868214837 -1.478609492491587 -1.474444111745859 -1.478267205433041 -1.481086978120802 -1.476160130736689 -1.479239046121803 -1.479414417103025 -1.4835829381257 -1.479890274718132 -1.482487266812414 -1.484952716459744 -1.486849719597501 -1.487264565731781 -1.484805046349633 -1.490927661625594 -1.489250012995152 -1.496060790217114 -1.491203871719552 -1.494265008656662 -1.494707942262004 -1.49831591199238 -1.500677151540152 -1.498980888377071 -1.504833079384827 -1.504068555074299 -1.50889458069812 -1.509523525867737 -1.512596996019988 -1.514974917910264 -1.516554948251618 -1.52038256792229 -1.520509556923313 -1.525382318230244 -1.524793538421555 -1.530302152408933 -1.529518797812446 -1.534608307047769 -1.534561579739109 -1.538380854844508 -1.540644140182459 -1.538980666620652 -1.544842079403591 -1.544026571593195 -1.549030942605815 -1.554238744005361 -1.55770977108976 -1.559870549509202 -1.561657681804478 -1.565282067020082 -1.570229448583288 -1.575346681328594 -1.57495811086411 -1.579862182628814 -1.58254064288993 -1.590239413579848 -1.589095234066396 -1.593945223111237 -1.600211847595718 -1.599360487319227 -1.604262129731618 -1.60609900682701 -1.614580714368217 -1.613837779755567 -1.620280704996768 -1.625655904633101 -1.625854481426967 -1.633781077380216 -1.636025666739243 -1.639823148386678 -1.643888529509346 -1.65028569007665 -1.652167407105021 -1.660668173527651 -1.658438786855558 -1.667830298504941 -1.670040651283725 -1.672169773881194 -1.679773929435192 -1.680950368926349 -1.689365080692848 -1.690228416737443 -1.698376739682965 -1.699770176959339 -1.707335226582496 -1.709647329274964 -1.715878391520945 -1.719505922186915 -1.724358218221622 -1.729668452701647 -1.732980235119046 -1.739435103712365 -1.741754950142635 -1.748728169918976 -1.751616343544986 -1.754784576530409 -1.759305262411424 -1.75941903707275 -1.763586920712616 -1.764755234594868 -1.767359939641716 -1.770142411007715 -1.771383600368703 -1.77551275175137 -1.77537143485997 -1.780464357693147 -1.779679526337983 -1.785382446335656 -1.784422155861913 -1.789676231215279 -1.789453837979856 -1.793442124902282 -1.795559764471647 -1.794021674572472 -1.799754733606856 -1.79908347792052 -1.803836965616435 -1.804544771857915 -1.807524442569008 -1.80998983823325 -1.811510626456694 -1.815394685501357 -1.815468154941751 -1.820366255361799 -1.819753770887388 -1.825310098278692 -1.824479470181931 -1.829616930793269 -1.829493885841513 -1.833392976578574 -1.835596230562611 -1.833977772075194 -1.839780942578998 -1.839048192862355 -1.843854934554084 -1.844522641089193 -1.847532263649992 -1.849972307189737 -1.851519948513079 -1.855381388275115 -1.855472469153065 -1.860352620723651 -1.859754646577546 -1.865304519418383 -1.864478492062188 -1.869612496997257 -1.869487935732286 -1.873389628775731 -1.875594038601813 -1.873971671958784 -1.879778278954424 -1.879042092745943 -1.883852420268232 -1.884520061211415 -1.887526015188332 -1.889969652836468 -1.891517623613427 -1.895378958867265 -1.895469842665238 -1.900346322563068 -1.89975202008972 -1.905302090010534 -1.904476167162535 -1.909609842643989 -1.909481687270628 -1.913387048897953 -1.915591524315962 -1.913965571842373 -1.91977561532985 -1.919035992629534 -1.92384990598238 -1.924517481333637 -1.927519766726674 -1.929966998483201 -1.931515298713775 -1.935376529459416 -1.935467216177411 -1.940340024402483 -1.939749393601893 -1.945299660602684 -1.944473842262884 -1.949607188290721 -1.949475438808968 -1.953384469020175 -1.95558901003011 -1.953959471725963 -1.959772951705275 -1.959029892513122 -1.963847391696528 -1.964514901455858 -1.967513518265015 -1.969964344129933 -1.971512973814123 -1.975374100051566 -1.975464589689583 -1.980333726241899 -1.979746767114066 -1.985297231194834 -1.984471517363232 -1.989604533937455 -1.989469190347309 -1.993381889142397 -1.995586495744258 -1.993953371609551 -1.9997702880807 -1.999023792396713 -2.003844877410677 -2.00451232157808 -2.007507269803356 -2.009961689776665 -2.011510648914472 -2.015371670643717 -2.015461963201756 -2.020327428081315 -2.019744140626238 -2.025294801786985 -2.024469192463581 -2.029601879584187 -2.029462941885648 -2.033379309264622 -2.035583981458407 -2.033947271493141 -2.039767624456126 -2.039017692280302 -2.043842363124825 -2.044509741700302 -2.047501021341697 -2.049959035423396 -2.05150832401482 -2.055369241235866 -2.055459336713929 -2.060321129920732 -2.059741514138413 -2.065292372379134 -2.064466867563929 -2.069599225230919 -2.06945669342399 -2.07337672938684 -2.075581467172556 -2.073941171376732 -2.079764960831552 -2.07901159216389 -2.083839848838974 -2.084507161822525 -2.087494772880037 -2.089956381070128 -2.09150599911517 -2.095366811828018 -2.095456710226104 -2.100314831760149 -2.099738887650584 -2.105289942971287 -2.104464542664277 -2.10959657087765 -2.109450444962332 -2.113374149509065 -2.115578952886705 -2.113935071260321 -2.119762297206979 -2.11900549204748 -2.123837334553122 -2.124504581944746 -2.127488524418378 -2.129953726716861 -2.131503674215518 -2.135364382420168 -2.135454083738276 -2.140308533599566 -2.139736261162757 -2.145287513563435 -2.144462217764626 -2.149593916524383 -2.149444196500672 -2.153371569631285 -2.155576438600852 -2.153928971143909 -2.159759633582405 -2.15899939193107 -2.163834820267271 -2.16450200206697 -2.167482275956718 -2.169951072363594 -2.171501349315866 -2.175361953012316 -2.175451457250451 -2.18030223543898 -2.179733634674932 -2.185285084155587 -2.184459892864975 -2.189591262171115 -2.189437948039012 -2.193368989753509 -2.195573924315001 -2.193922871027499 -2.199756969957829 -2.19899329181466 -2.20383230598142 -2.20449942218919 -2.20747602749506 -2.209948418010326 -2.211499024416213 -2.215359523604469 -2.215448830762622 -2.220295937278397 -2.219731008187104 -2.225282654747736 -2.224457567965322 -2.229588607817849 -2.229431699577356 -2.23336640987573 -2.235571410029149 -2.233916770911088 -2.239754306333254 -2.238987191698249 -2.243829791695569 -2.244496842311412 -2.247469779033398 -2.249945763657059 -2.251496699516563 -2.255357094196618 -2.255446204274795 -2.260289639117813 -2.259728381699277 -2.265280225339888 -2.264455243065672 -2.269585953464579 -2.269425451115696 -2.273363829997951 -2.275568895743298 -2.273910670794677 -2.279751642708682 -2.278981091581838 -2.283827277409715 -2.284494262433636 -2.287463530571741 -2.289943109303793 -2.291494374616909 -2.295354664788769 -2.295443577786968 -2.30028334095723 -2.299725755211451 -2.305277795932037 -2.304452918166019 -2.309583299111312 -2.309419202654037 -2.313361250120174 -2.315566381457446 -2.313904570678266 -2.319748979084106 -2.31897624222492 -2.32382456744035 -2.324494243738712 -2.327461582812105 -2.329942410853848 -2.331497943005465 -2.335351671519243 -2.33544618177097 -2.340287282831231 -2.339725154003024 -2.345286132843391 -2.344447657513317 -2.349588659555232 -2.349427553452811 -2.353361163342259 -2.355576951195112 -2.353917626593938 -2.359753798620895 -2.358989829660039 -2.363821354188901 -2.364506652928124 -2.367473693904791 -2.369947604830492 -2.371511733595933 -2.375349743051049 -2.37545322474662 -2.380303615261615 -2.379723171863836 -2.385305152161892 -2.384435673322729 -2.389605205226096 -2.389426366497717 -2.393382816736873 -2.39554019736693 -2.394048731257017 -2.399008837088651 -2.385226034201406 -2.375999023336323 -2.362857560137333 -2.35190533554742 -2.340501595810854 -2.328175488271819 -2.318119868154957 -2.304343678877628 -2.295275050816579 -2.280844629729917 -2.272493240173015 -2.25779382091604 -2.249007514998927 -2.234993415272383 -2.224994528051222 -2.213377283877721 -2.197749793862144 -2.189786417503219 -2.17502869965938 -2.166093884867018 -2.152759593217616 -2.141959934299961 -2.130406586710218 -2.118251277694622 -2.108008554536287 -2.094459626006437 -2.085089452830774 -2.071040859857973 -2.062200042143394 -2.048194943300939 -2.03847154035445 -2.037805183386465 -2.057188894567193 -2.072453253785546 -2.085224899628061 -2.104556143641418 -2.11798824573992 -2.1364705403615 -2.151254046271609 -2.167900238705256 -2.184458035100143 -2.199742828244937 -2.217636617877654 -2.231483488765025 -2.250317246695147 -2.263555832029072 -2.283092478122323 -2.296071602904519 -2.31517735396205 -2.328800585840668 -2.346740697498458 -2.362727502655897 -2.375053861436072 -2.394689840259898 -2.407911791163091 -2.426543867223478 -2.441217560975423 -2.457927923161247 -2.47447176384476 -2.48970988408339 -2.507701363879995 -2.521407495327431 -2.540442940823511 -2.553404845848339 -2.57332340820432 -2.585723704908313 -2.605668405632885 -2.606013956568095 -2.594507828060142 -2.583698897535986 -2.567425319103634 -2.560674964507748 -2.55869343088988 -2.563998321356929 -2.564354107896608 -2.567545569163694 -2.569852810359922 -2.571545836485231 -2.575294406776222 -2.575483561252399 -2.580212058172091 -2.579760004601934 -2.585223237762416 -2.584483188870009 -2.589542082838642 -2.58941385999179 -2.593331519898477 -2.595567130957293 -2.593857439315198 -2.599747721349931 -2.59893112771827 -2.603821769356113 -2.604468660608114 -2.607424819081691 -2.609921749148134 -2.611477736433708 -2.615336987534307 -2.615422673677891 -2.620237701565621 -2.619701280294458 -2.625264848099609 -2.624425991871919 -2.629567908267527 -2.629361270824407 -2.633345435233118 -2.635542049252031 -2.633865348030331 -2.639721707197695 -2.638937742242161 -2.643796729731061 -2.644482315093451 -2.647403041448893 -2.649929671242437 -2.651467995626465 -2.655343538047664 -2.655409648073548 -2.660248996307228 -2.659679768952279 -2.66529469222559 -2.664378743640653 -2.669648293002767 -2.669213045568382 -2.673680620081397 -2.674165072206051 -2.668373507694114 -2.674535137470801 -2.668242136424254 -2.67432401135274 -2.669039674623629 -2.673201690788351 -2.670158675664882 -2.672155546677506 -2.671578007748354 -2.670718680134487 -2.672667774152115 -2.669524664292709 -2.67388673379673 -2.668881009708601 -2.674179289848501 -2.668726570919572 -2.673591790316518 -2.67023528780457 -2.669274084385317 -2.67387225166278 -2.668810485243787 -2.673779693864872 -2.669584801554528 -2.672603956366738 -2.670860944928318 -2.671145906403297 -2.675501160904981 -2.670700849911259 -2.675195615696737 -2.674470430311 -2.675024914326635 -2.674824121225289 -2.678529861893557 -2.674256657896086 -2.6781898090997 -2.68101154954526 -2.675977127244367 -2.679159137384579 -2.679231413610702 -2.683507509550158 -2.679812878384792 -2.682299812962642 -2.684873085861711 -2.686779972607953 -2.687191683496293 -2.684726251714829 -2.690738716808081 -2.689171218360346 -2.695987907981626 -2.691134124730003 -2.69418537805863 -2.694520488412231 -2.698238515659039 -2.700601722964609 -2.69879788488475 -2.704752423959348 -2.703886620247989 -2.708817690226525 -2.709448065008282 -2.712407043052741 -2.714898450516629 -2.716481262438474 -2.720314523533479 -2.720424889263477 -2.725200431533554 -2.724706335704489 -2.730239209450242 -2.729437381022565 -2.734542296336484 -2.734358313438415 -2.738321732322309 -2.740547676951328 -2.738821794473749 -2.744733816288536 -2.743876154159227 -2.748918124654524 -2.754204206327394 -2.757473203088986 -2.759847231576785 -2.761523270990584 -2.765283640622866 -2.770064556044671 -2.775257929792434 -2.774761643706431 -2.779929354242801 -2.782300896719461 -2.790372432230807 -2.78862837993663 -2.794269444689329 -2.799427787369392 -2.80235450115402 -2.805378936599427 -2.80543820659458 -2.814787849585908 -2.813572229691637 -2.820223214002377 -2.825487824514385 -2.82584029652023 -2.833680958212043 -2.835947896135133 -2.839659082290556 -2.843757583154802 -2.850295613705752 -2.851977820170261 -2.860757175721109 -2.85801057925728 -2.868120599658689 -2.869286330853206 -2.875137759568727 -2.880913461118996 -2.880269787886666 -2.889589371755779 -2.8899480504216 -2.898331982088501 -2.899591214269257 -2.907330283783895 -2.909539417331608 -2.91580713819783 -2.919336456175086 -2.924231698144988 -2.929674793261864 -2.932793506122554 -2.939521866536714 -2.941328459137309 -2.949017191544851 -2.950862941848119 -2.957751936838192 -2.960444794095229 -2.958738456033066 -2.963811211775549 -2.964474868279025 -2.967315182047253 -2.969963448317635 -2.971378657570101 -2.975404839808014 -2.975300181536854 -2.980294891681319 -2.979553006261352 -2.985388786895873 -2.984235426865422 -2.989762994039631 -2.989027346974532 -2.993731146528156 -2.994806362774779 -2.996989034880259 -3.00089426529066 -2.998402896880837 -3.004061256679366 -3.004264405542071 -3.007479684974544 -3.009810875543167 -3.011505683658093 -3.015286773558002 -3.015396901618638 -3.020196789349972 -3.019627250810756 -3.025316438838911 -3.024292741185441 -3.029703693617619 -3.029067394836183 -3.033681998204447 -3.03484282886574 -3.036945132382982 -3.040920474262801 -3.038367611822673 -3.044079225617014 -3.044242274773348 -3.047487506055527 -3.049793344499656 -3.051515005714475 -3.055273476331758 -3.05540121582995 -3.060183154711823 -3.059628126500912 -3.0653108599786 -3.064291763065698 -3.069699259821607 -3.069061444726961 -3.073678650401605 -3.074840636904943 -3.07693903226657 -3.080917810638228 -3.078361511706261 -3.084076711331161 -3.08423969489557 -3.087481257593869 -3.089790690146389 -3.091512680814825 -3.095271046923911 -3.095398589342123 -3.100176856551238 -3.099625500013085 -3.105308430570751 -3.104289438166045 -3.109696605468341 -3.109055196265299 -3.113676070523827 -3.114838122619093 -3.116932932150158 -3.120915147013653 -3.118355411589851 -3.124074197045311 -3.124237115017793 -3.127475009132209 -3.129788035793121 -3.131510355915172 -3.13526861751606 -3.135395962854296 -3.140170558390655 -3.139622873525259 -3.145306001162902 -3.144287113266393 -3.149693951115072 -3.14904894780364 -3.153673490646047 -3.15483560833324 -3.156926832033747 -3.160912483389081 -3.158349311473439 -3.164071682759459 -3.164234535140015 -3.167468760670549 -3.169785381439854 -3.171508031015521 -3.175266188108212 -3.175393336366469 -3.180164260230073 -3.179620247037432 -3.185303571755052 -3.184284788366742 -3.189691296761804 -3.189042699341981 -3.193670910768272 -3.19483309404739 -3.196920731917338 -3.200909819764504 -3.198343211357028 -3.204069168473611 -3.204231955262238 -3.207462512208891 -3.209782727086585 -3.211505706115871 -3.215263758700359 -3.215390709878643 -3.220157962069488 -3.219617620549605 -3.225301142347203 -3.224282463467089 -3.229688642408536 -3.229036450880323 -3.233668330890491 -3.234830579761539 -3.236914631800925 -3.240907156139932 -3.238337111240618 -3.244066654187758 -3.24422937538446 -3.247456263747231 -3.249780072733319 -3.251503381216218 -3.25526132929251 -3.255388083390814 -3.260151663908902 -3.259614994061778 -3.265298712939353 -3.264280138567439 -3.269685988055269 -3.269030202418663 -3.273665751012716 -3.274828065475687 -3.276908531684515 -3.280904492515357 -3.278331011124205 -3.284064139901906 -3.284226795506682 -3.287450015285573 -3.289777418380051 -3.291501056316567 -3.295258899884663 -3.295385456902987 -3.300145365748319 -3.29961236757395 -3.305296283531503 -3.304277813667788 -3.309683333702001 -3.309023953957006 -3.313663171134936 -3.314825551189835 -3.316902431568105 -3.320901828890782 -3.318324911007795 -3.324061625616053 -3.324224215628903 -3.327443766823914 -3.329774764026781 -3.331498731416913 -3.335256470476812 -3.335382830415161 -3.340139067587736 -3.339609741086126 -3.345293854123653 -3.344275488768134 -3.349680679348733 -3.349017705495347 -3.353660591257157 -3.354823036903985 -3.356896331451694 -3.360899165266209 -3.358318810891385 -3.364059111330203 -3.364221635751126 -3.367437518362254 -3.369772109673514 -3.371496406517264 -3.375254041068962 -3.375380203927333 -3.380132769427151 -3.379607114598297 -3.385291424715803 -3.384273163868484 -3.389678024995465 -3.389011457033688 -3.393658011379379 -3.394820522618134 -3.396890231335283 -3.400896501641636 -3.398312710774976 -3.404056597044351 -3.404219055873348 -3.407431269900594 -3.409769455320248 -3.411494081617613 -3.415251611661112 -3.415377577439509 -3.420126471266568 -3.419604488110472 -3.425288995307955 -3.424270838968832 -3.429675370642197 -3.429005208572027 -3.433655431501603 -3.43481800833228 -3.436884131218873 -3.44089383801706 -3.438306610658565 -3.4440540827585 -3.444216475995569 -3.447425021438935 -3.449766800966978 -3.45149175671796 -3.455249182253262 -3.455374950951681 -3.460120173105983 -3.459601861622644 -3.465286565900106 -3.464268514069181 -3.469672716288931 -3.468998960110369 -3.473652851623824 -3.474815494046429 -3.476878031102461 -3.480891174392485 -3.478300510542155 -3.484051568472651 -3.484213896117791 -3.487418772977279 -3.489764146613711 -3.491489431818307 -3.495246752845415 -3.495372324463854 -3.5001138749454 -3.499599235134816 -3.505284136492254 -3.504266189169529 -3.509670061935662 -3.508992711648708 -3.513650271746045 -3.514812979760579 -3.516871930986051 -3.520888510767913 -3.518295661185236 -3.524048858503281 -3.524213877422869 -3.527416825217641 -3.529763448163768 -3.531493000206863 -3.535243759575888 -3.535374928447856 -3.540117816819403 -3.539598633926391 -3.54529247340361 -3.544260928516826 -3.549675422379581 -3.549001062447486 -3.553650184968133 -3.554823549498243 -3.556884986901722 -3.560893330304698 -3.558309248620354 -3.56404564525183 -3.564226286612278 -3.567428936310328 -3.569768642140414 -3.571506790797333 -3.575241831107693 -3.575381971423506 -3.580134149249786 -3.579596651787203 -3.585311492722111 -3.584248944326239 -3.589691968050448 -3.588999875492389 -3.593671838362746 -3.594786795670063 -3.597016091564802 -3.600148368772454 -3.584545453161724 -3.576223314399254 -3.562577193821489 -3.551860577952954 -3.540322633120775 -3.528170545473216 -3.518011956211601 -3.504272425554514 -3.495105584804751 -3.480718109653285 -3.472499580733232 -3.457607091919551 -3.449094277823277 -3.434566924267056 -3.425283549677094 -3.412623882180852 -3.400717154169929 -3.390925949187023 -3.374348118619696 -3.366318175929952 -3.352479226901772 -3.341915176705497 -3.330227624020139 -3.318246334896021 -3.307900642592931 -3.294388372683324 -3.284919986818946 -3.270914339781338 -3.262206382703613 -3.248008214304449 -3.238558303178801 -3.237378692381136 -3.257477916193066 -3.27169985208868 -3.288192259935844 -3.305695675325223 -3.317307664700238 -3.336694831424432 -3.350973679955765 -3.367855481110793 -3.384279072410063 -3.399737885446334 -3.417528705934298 -3.43141223544191 -3.450147780683321 -3.463429311952438 -3.483098818682542 -3.495884873908031 -3.515264116786399 -3.528374094835341 -3.547029719124331 -3.561974100959029 -3.578021221743859 -3.595829371943704 -3.607231210123406 -3.62676815828641 -3.640937194659581 -3.657883165566782 -3.674292801154679 -3.689704941284788 -3.707593451936638 -3.721336242004317 -3.74027347481168 -3.753278325771704 -3.773329748764541 -3.785536975911825 -3.805755168457235 -3.805587465562765 -3.794796849686016 -3.782945495839118 -3.770392679411418 -3.761814496191552 -3.758012849850196 -3.76422261241986 -3.764073741580763 -3.76750081156923 -3.76967384766984 -3.771540893686628 -3.775186494832865 -3.775412307929285 -3.780042592160261 -3.7796334845253 -3.785229578322633 -3.784296459873519 -3.78962884566299 -3.788987368986462 -3.793620541524347 -3.794813729260424 -3.796824799622983 -3.800887253033736 -3.798250546678585 -3.804046060419045 -3.804188294292273 -3.807380061487226 -3.809742786458053 -3.811472793635106 -3.815229075590951 -3.815351420354775 -3.82006823555379 -3.819574760217824 -3.825271188659827 -3.824239262875428 -3.829654671091878 -3.828934779819082 -3.833634456858992 -3.834788647555162 -3.836832708338116 -3.840861238881498 -3.838257161202477 -3.844021020793992 -3.844201948777607 -3.847358283854427 -3.849750708552356 -3.851463052827863 -3.85523562610431 -3.855338394750436 -3.860079530295397 -3.859553248875645 -3.865301032785811 -3.864192014644167 -3.869735055827116 -3.868786554563056 -3.87396964170727 -3.873411670509181 -3.871340868001901 -3.875674669154606 -3.867561555384572 -3.874548302415671 -3.868759308307786 -3.873156933193886 -3.869979712974804 -3.872150603878905 -3.871470095804999 -3.870647426811373 -3.872498308140286 -3.869398144216076 -3.873893074356949 -3.868694280712111 -3.874266052672852 -3.868300079914245 -3.873880811942391 -3.869481886107701 -3.872241444693101 -3.875011783346585 -3.868130529583848 -3.874002993152516 -3.869306727644353 -3.872558364035087 -3.870686479436644 -3.87113760422874 -3.875400786536379 -3.870621279552923 -3.875043098739813 -3.874327857939103 -3.875056008667338 -3.874610864914555 -3.87865029552789 -3.873798088491228 -3.878522995636306 -3.880211697171742 -3.879009905212448 -3.880232708994376 -3.878636609744226 -3.883639992715545 -3.879643327497786 -3.882141659538033 -3.884836078804752 -3.886623283609572 -3.887266062690623 -3.88445119799449 -3.890819587372056 -3.888770657679374 -3.89632186818252 -3.89057631591475 -3.894709467226033 -3.893594744768618 -3.899144596695137 -3.899088905654682 -3.902809591331976 -3.900512271682299 -3.899708662392433 -3.896041363344736 -3.894922275877398 -3.891721491650505 -3.889530739687906 -3.888244450751885 -3.884187204427678 -3.884230068227069 -3.878674681133931 -3.879939614800251 -3.874279826615152 -3.875255579849556 -3.869947188866892 -3.86967646012864 -3.866185589055438 -3.864100870807653 -3.865092884959032 -3.859905711962472 -3.860001429333065 -3.855967327360347 -3.859790334033265 -3.856728970909366 -3.854516490122855 -3.853280602384012 -3.849147452235743 -3.853900613337256 -3.848692530285515 -3.850063075346274 -3.843883913389011 -3.848240824711712 -3.845614365738072 -3.844185975601286 -3.841778783405462 -3.843647513408583 -3.845502888454594 -3.839306361089717 -3.842100566388054 -3.841499045239772 -3.839410998150764 -3.839292186428946 -3.840318777764162 -3.837470789864828 -3.837659052144228 -3.839692336545715 -3.833186566443052 -3.838990844466852 -3.834317402554127 -3.837866628444666 -3.836050667043671 -3.833538924123148 -3.835669541527058 -3.83348077405982 -3.838324375249383 -3.83482348804244 -3.836964128720215 -3.836288440136105 -3.835806794888192 -3.837400718038464 -3.834438358796935 -3.83895618481966 -3.833530162854677 -3.83955031430307 -3.832881936564456 -3.839465786154785 -3.833705023994825 -3.838684106257994 -3.834822905934918 -3.836867584333544 -3.836572572696649 -3.835061494892784 -3.840951378131418 -3.83436014826782 -3.835444997099439 -3.830515308727578 -3.830338772501175 -3.826396414920533 -3.824815901551845 -3.82300920840517 -3.819400444146781 -3.819048610617747 -3.813852968391855 -3.814792347246799 -3.809423876444533 -3.810130676800165 -3.805069342144367 -3.804578969094083 -3.80129168743551 -3.799009944391148 -3.800200676406304 -3.794814946712397 -3.79512163818003 -3.790770382203102 -3.790133469519778 -3.786573414771142 -3.784668637483915 -3.783140884292465 -3.779287236712468 -3.779150583675184 -3.773767462381676 -3.774871844771857 -3.769356387203267 -3.770192640919485 -3.765015350428895 -3.764631513879057 -3.761247698867358 -3.759051439053814 -3.760168974141848 -3.75484648293369 -3.755098553354686 -3.750793379712448 -3.750116498506611 -3.746593732775444 -3.744656415146938 -3.743154856148152 -3.739278798301927 -3.739160150862152 -3.733766424064696 -3.73487797343767 -3.729355667158657 -3.730196312599043 -3.725016225339418 -3.724638060693148 -3.721249510820072 -3.719054275664721 -3.720175074258259 -3.714849146558266 -3.715104653471098 -3.7107958939983 -3.710119078384388 -3.706599981237103 -3.704659069500207 -3.703157181047805 -3.699281227709775 -3.699162777349977 -3.693772722225277 -3.694880599925495 -3.689358096566507 -3.690198637498696 -3.685018879692686 -3.684644309154809 -3.681252090697851 -3.67905678995057 -3.680181174374669 -3.67485181018284 -3.675110753587509 -3.670798408284153 -3.670121658262167 -3.666606229698762 -3.664661723853475 -3.663159505947456 -3.659283657117623 -3.659165403837804 -3.653779020385862 -3.654883226413322 -3.649360525974358 -3.650200962398348 -3.645021534045954 -3.644650557616467 -3.641254670575628 -3.639059304236423 -3.64018727449108 -3.634854473807414 -3.635116853703919 -3.630800922570005 -3.630124238139946 -3.626612478160421 -3.624664378206741 -3.623161830847107 -3.619286086525474 -3.619168030325632 -3.613785318546446 -3.614885852901151 -3.609362955382205 -3.610203287297999 -3.605024188399221 -3.604656806078125 -3.601257250453406 -3.599061818522273 -3.60019337460749 -3.594857137431988 -3.59512295382033 -3.590803436855855 -3.590126818017722 -3.586618726622079 -3.58466703256001 -3.583164155746759 -3.579288515933325 -3.57917065681346 -3.573791616707029 -3.574888479388976 -3.569365384790054 -3.57020561219765 -3.565026842752489 -3.564663054539784 -3.561259830331184 -3.559064332808124 -3.560199474723902 -3.554859801056562 -3.55512905393674 -3.550805951141706 -3.550129397895501 -3.546624975083739 -3.544669686913276 -3.54316648064641 -3.539290945341173 -3.539173283301285 -3.533797914867614 -3.534891105876803 -3.529367814197903 -3.530207937097301 -3.525029497105757 -3.524669303001444 -3.521262410208962 -3.519066847093978 -3.520205574840312 -3.514862464681136 -3.515135154053151 -3.510808465427559 -3.510131977773279 -3.506631223545396 -3.504672341266546 -3.503168805546062 -3.499293374749024 -3.499175909789114 -3.493804213028199 -3.494893732364631 -3.489370243605754 -3.490210261996955 -3.485032151459025 -3.484675551463103 -3.481264990086741 -3.479069361379829 -3.480211674956723 -3.474865128305709 -3.475141254169561 -3.470810979713409 -3.470134557651058 -3.466637472007057 -3.464674995619812 -3.463171130445715 -3.459295804156872 -3.45917853627694 -3.453810511188781 -3.454896358852457 -3.449372673013605 -3.450212586896605 -3.445034805812291 -3.444681799924762 -3.441267569964518 -3.439071875665678 -3.440217775073135 -3.434867791930285 -3.435147354285973 -3.43081349399926 -3.430137137528835 -3.426643720468717 -3.424677649973079 -3.423173455345366 -3.41929823356472 -3.419181162764767 -3.413816809349364 -3.414898985340284 -3.409375102421456 -3.410214911796257 -3.405037460165561 -3.404688048386422 -3.401270149842297 -3.39907438995153 -3.400223875189544 -3.394870455554857 -3.395153454402383 -3.390816008285112 -3.390139717406612 -3.386649968930375 -3.384680304326347 -3.383175780245017 -3.379300662972572 -3.379183789252595 -3.373823107509949 -3.37490161182811 -3.369377531829304 -3.370217236695908 -3.365040114518829 -3.36469429684808 -3.361272729720076 -3.359076904237382 -3.360229975305954 -3.354873119179433 -3.355159554518795 -3.350818522570965 -3.350142297284391 -3.346656217392034 -3.344682958679616 -3.343178105144669 -3.33930309238042 -3.33918641574042 -3.333829405670534 -3.334904238315937 -3.329379961237152 -3.33021956159556 -3.325042768872095 -3.32470054530974 -3.321275309597853 -3.319079418523233 -3.320236075422365 -3.314875782804008 -3.315165654635206 -3.310821036856814 -3.310144877162169 -3.306662465853694 -3.304685613032885 -3.303180430044321 -3.299305521788269 -3.299189042228246 -3.293835703831117 -3.294906864803764 -3.289382390645003 -3.290221886495211 -3.285045423225365 -3.284706793771399 -3.281277889475629 -3.279081932809084 -3.280242175538777 -3.27487844642858 -3.275173005511109 -3.270823355459151 -3.270150018222803 -3.266673015017375 -3.264690223289476 -3.26318864823218 -3.259307387334442 -3.259196899187899 -3.253852242026287 -3.254911516570992 -3.249395586372055 -3.250221275641811 -3.245056092375818 -3.244727641493493 -3.241282962453273 -3.239097531118453 -3.24026743168727 -3.234888593214515 -3.235198793179051 -3.230825170779403 -3.230167587167767 -3.226697623033381 -3.224700725972658 -3.22320708862195 -3.219310317681947 -3.219209195139206 -3.213881170777837 -3.214914787407457 -3.209419464506257 -3.210213941250528 -3.20507794675322 -3.204738951461717 -3.201309775603441 -3.199065805861976 -3.200410736583172 -3.194148958931419 -3.18144719795324 -3.16300786849853 -3.148523654132534 -3.131141761599327 -3.115260025659554 -3.099875493097138 -3.082085301601557 -3.068104902245868 -3.048865202653969 -3.036041498249192 -3.016612411333079 -3.003576738643142 -2.984485565232583 -2.9703184971597 -2.952926646673347 -2.936907920944468 -2.924123999421122 -2.904931866595137 -2.891262063644035 -2.873107758600928 -2.858430846968372 -2.841208857275185 -2.82517032526545 -2.809955932319244 -2.791978846798584 -2.77822610235033 -2.758692200989332 -2.746242981352901 -2.726324072119156 -2.713982510827345 -2.693954899294643 -2.6931427621971 -2.705126172944875 -2.715988919423999 -2.731611305419859 -2.739706919982486 -2.754233809957395 -2.763489442667111 -2.776930459777923 -2.787161658603799 -2.799227082361915 -2.811452132668863 -2.82161176895565 -2.83525521808457 -2.843932591174872 -2.858763206499655 -2.867221366913785 -2.88186382023023 -2.89066602160878 -2.904150661574621 -2.914683135631694 -2.926268196866051 -2.941452467460692 -2.949845943850115 -2.96416955561339 -2.973567798100795 -2.986899134237293 -2.997201839983107 -3.009246119813065 -3.02142383830662 -3.031681373773692 -3.045184477622632 -3.054070881624402 -3.068617473294574 -3.077457155811481 -3.091520572033325 -3.10116238198615 -3.101376529225365 -3.082455425948935 -3.067244620317843 -3.053836125361074 -3.035836395347111 -3.034963395572999 -3.031027280805947 -3.030040840914034 -3.026831982908873 -3.02463247503476 -3.023264440507763 -3.019279275485616 -3.019265796523253 -3.013852595294152 -3.014977885023825 -3.009361844185273 -3.010284705794325 -3.005041367898439 -3.004788929572379 -3.001284277542825 -2.999117882310848 -3.00028044580546 -2.994914479438444 -2.995213292634211 -2.990855757376834 -2.990160553381097 -2.986723729750187 -2.984706722529508 -2.983200990255542 -2.979326715059401 -2.979210161924397 -2.973890835008847 -2.974924413692002 -2.969408313338167 -2.970232158595539 -2.965072502033861 -2.964748837328318 -2.961303352633022 -2.959097829177292 -2.960300554753413 -2.954893792535354 -2.955232107390922 -2.950835746323485 -2.95017936762199 -2.946714449040708 -2.944719953330348 -2.943195899247604 -2.939338124388458 -2.939202389295711 -2.933914726071619 -2.934908155325477 -2.929443016279851 -2.930189560163575 -2.925158195475638 -2.924613108995609 -2.921643697236857 -2.917725880703013 -2.914820914650021 -2.909713296745864 -2.904547633139826 -2.90136951841292 -2.89473995143384 -2.892528094420957 -2.884951103254933 -2.883892038921541 -2.875572615058171 -2.874522547357333 -2.866339042116855 -2.864766711723822 -2.858029977389891 -2.854708145831157 -2.849680881141161 -2.844154943721037 -2.841541753416394 -2.833822159528826 -2.835709560228623 -2.829083345876569 -2.825096664799835 -2.820866156976449 -2.815249314938807 -2.811989471956188 -2.805605531763686 -2.802947773447388 -2.799431009038903 -2.794590194988538 -2.788786344822113 -2.789826995158376 -2.779042902162816 -2.780814236527736 -2.773837732530508 -2.769961115449944 -2.765761587854842 -2.765291046836412 -2.759271917338798 -2.75315048886465 -2.756040176198034 -2.750279048064456 -2.745713563910589 -2.741518748469028 -2.739767743589914 -2.738466263544188 -2.73122808321687 -2.728533727833252 -2.724417356814588 -2.724467515380243 -2.720068002618391 -2.717078730596046 -2.709542573859616 -2.71019879635792 -2.705849374594083 -2.704856509031659 -2.702130903359264 -2.698727124560825 -2.700726295209385 -2.695578563363337 -2.695366791067662 -2.691628241199997 -2.689806136318332 -2.688166899889473 -2.684358736998259 -2.684236974101591 -2.678890009656111 -2.680011867504389 -2.674317806694794 -2.675395448549974 -2.669893420326367 -2.670063214165389 -2.665920756729641 -2.664827607512017 -2.662143507215413 -2.658741451828737 -2.660696511961105 -2.655719953842734 -2.660087168960846 -2.656753513193086 -2.654707076623805 -2.653274283241639 -2.649263094911752 -2.65396211873722 -2.648866969075627 -2.650181692922598 -2.643882695730375 -2.64842194342676 -2.645529835564982 -2.644609365415994 -2.641490284751924 -2.64440034349698 -2.642535528146808 -2.638166829405914 -2.642781147427739 -2.641274754176842 -2.639691364466607 -2.639336944023412 -2.640497740454241 -2.637475732663429 -2.637766964087585 -2.639763589868827 -2.63335603245488 -2.639117364543488 -2.63431106199391 -2.638053357441156 -2.635963904219321 -2.633965415128474 -2.635380519901185 -2.634234175756691 -2.635357014941599 -2.633683956358636 -2.6376447097599 -2.636064149073176 -2.636087161204037 -2.637445475632928 -2.634617321487015 -2.638961127618261 -2.633638074798032 -2.639621567626183 -2.633051402576283 -2.639592306231416 -2.633698683434606 -2.638870835254482 -2.634736143110569 -2.637294075338868 -2.636283551070776 -2.635814896589653 -2.637984017823634 -2.633220616584017 -2.636125578139121 -2.630291017664646 -2.630619138817018 -2.626441172514995 -2.624994864241927 -2.623014151203772 -2.619508356090137 -2.619119863940862 -2.614022434403685 -2.614918867323431 -2.609417535884314 -2.610317405796655 -2.604982579320018 -2.605005460099409 -2.601002665809638 -2.599763346088016 -2.597233316098519 -2.593675415028595 -2.595802219219713 -2.590546091140169 -2.59041383583562 -2.586618172365606 -2.584847600173995 -2.583145827091066 -2.579395148655824 -2.579221836998299 -2.573936928393504 -2.574998364848488 -2.569350046643048 -2.570379369915972 -2.564928587604544 -2.565058004884384 -2.560958677241485 -2.559804840750682 -2.557201613834061 -2.553706951249889 -2.55577913439437 -2.550569088649519 -2.550396864822455 -2.546638490369908 -2.544835377837017 -2.543159798946755 -2.53938671024528 -2.539231404185266 -2.533935890076524 -2.535004493514303 -2.52934932659844 -2.530383041595533 -2.524929462515066 -2.525064551698475 -2.5209604891942 -2.519807677361587 -2.517207713950473 -2.513709614874461 -2.515785234510781 -2.510571602935369 -2.510399444700234 -2.506644738831566 -2.504838032190286 -2.503162123846405 -2.499389139653131 -2.499234030673092 -2.493942188237107 -2.495007120002128 -2.48935175600629 -2.490385366495186 -2.484932116868336 -2.485070800160137 -2.480963069071976 -2.479810191647442 -2.477213814066885 -2.473712278499037 -2.475791334627191 -2.470574117221221 -2.47040202457801 -2.466650987293228 -2.464840686543556 -2.463164448746058 -2.459391569060979 -2.45923665716092 -2.453948486397691 -2.455009746489955 -2.449354185414139 -2.450387691394836 -2.444934771221605 -2.445077048621794 -2.440965648949754 -2.439812705933289 -2.437219914183298 -2.433714942123609 -2.435797434743602 -2.430576631507071 -2.430404604455789 -2.426657235754885 -2.424843340896823 -2.423166773645709 -2.41939399846883 -2.419239283648746 -2.413954784558273 -2.415012372977784 -2.409356614821989 -2.41039001629449 -2.404937425574869 -2.405083297083451 -2.400968228827533 -2.399815220219141 -2.397226014299704 -2.393717605748183 -2.395803534860013 -2.390579145792922 -2.390407184333568 -2.386663484216544 -2.384845995250089 -2.383169098545361 -2.379396427876678 -2.379241910136572 -2.373961082718858 -2.375014999465611 -2.369359044229837 -2.370392341194141 -2.364940079928139 -2.365089545545113 -2.360970808705311 -2.359817734504996 -2.357232114416116 -2.353720269372758 -2.355809634976424 -2.350581660078775 -2.350409764211346 -2.346669732678204 -2.344848649603357 -2.343171423445011 -2.33939885728453 -2.339244536624399 -2.333967380879441 -2.335017625953436 -2.329361473637688 -2.330394666093792 -2.324942734281409 -2.325095794006771 -2.320973388583087 -2.319820248790845 -2.317238214532526 -2.313722932997332 -2.315815735092834 -2.310584174364626 -2.310412344089122 -2.306675981139862 -2.304851303956627 -2.303173748344664 -2.299401286692379 -2.299247163112227 -2.293973679040026 -2.295020252441262 -2.289363903045538 -2.290396990993444 -2.284945388634672 -2.285102042468429 -2.280975968460867 -2.279822763076695 -2.277244314648938 -2.273725596621906 -2.275821835209246 -2.270586688650479 -2.270414923966899 -2.266682229601521 -2.264853958309893 -2.263176073244316 -2.259403716100228 -2.259249789600053 -2.253979977200611 -2.25502287892909 -2.249366332453388 -2.250399315893097 -2.244948042987941 -2.245108290930089 -2.240978548338645 -2.23982527736255 -2.237250414765347 -2.233728260246481 -2.235827935325656 -2.230589202936329 -2.230417503844679 -2.226688478063179 -2.224856612663161 -2.223178398143967 -2.219406145508076 -2.219252416087881 -2.213986275361193 -2.215025505416917 -2.209368761861234 -2.210401640792745 -2.204950697341211 -2.205114539391749 -2.200981128216422 -2.1998277916484 -2.197256514881759 -2.193730923871053 -2.195834035442066 -2.190591717222181 -2.190420083722457 -2.18669472652484 -2.184859267016429 -2.18318072304362 -2.179408574915927 -2.179255042575707 -2.173992573521776 -2.175028131904745 -2.169371191269085 -2.170403965692399 -2.164953351694477 -2.165120787853409 -2.1609837080942 -2.159830305934248 -2.15726261499817 -2.153733587495628 -2.155840135558479 -2.150594231508033 -2.150422663600235 -2.146700974986497 -2.144861921369695 -2.14318304794327 -2.139411004323776 -2.139257669063535 -2.133998871682361 -2.135030758392571 -2.129373620676933 -2.13040629059205 -2.124956006047744 -2.125127036315067 -2.120986287971978 -2.119832820220102 -2.117268715114581 -2.113736251120202 -2.115846235674889 -2.110596745793884 -2.110425243478012 -2.106707223448157 -2.104864575722966 -2.103185372842924 -2.099413433731627 -2.099260295551363 -2.094005169842946 -2.095033384880398 -2.089376050084784 -2.090408615491703 -2.084958660401012 -2.085133284776724 -2.080988867849757 -2.079835334505955 -2.077274815230991 -2.073738914744777 -2.075853586550791 -2.07059906439622 -2.070430384538645 -2.066717772611838 -2.064869185979558 -2.063193591030781 -2.059415299277799 -2.059268152511017 -2.054021708038116 -2.055038036647627 -2.049389245811838 -2.050408004638303 -2.044969329551467 -2.04515413249882 -2.0409939408274 -2.039850932815322 -2.037300071379486 -2.033749061530711 -2.035879374218735 -2.030600879716471 -2.030447953483611 -2.026742380627844 -2.024879688662736 -2.023212031420553 -2.019418229625303 -2.019280448462321 -2.014050636789666 -2.015041307484091 -2.00941312394604 -2.010400670247018 -2.004991183928868 -2.005165442467043 -2.001020753977568 -1.999819207558844 -1.997443376275385 -1.993009427247615 -1.982127778992923 -1.962783577435599 -1.948804020448377 -1.931186519193789 -1.915438988349634 -1.89988043589574 -1.882193213544911 -1.868176155568982 -1.849034668665798 -1.836168018325826 -1.816606070772859 -1.803763467639633 -1.784398802408234 -1.770744988165027 -1.752637625047474 -1.737661322641336 -1.721156639113335 -1.703792334911332 -1.691942644683717 -1.672883467537997 -1.658711213284217 -1.64125361486965 -1.625349287955531 -1.609960875117847 -1.59208675874194 -1.578297355673446 -1.55886166700116 -1.546369501429534 -1.526317731558938 -1.514169239823834 -1.493868136470293 -1.493569253202426 -1.504837151319002 -1.516742321120866 -1.528643945112073 -1.53856738829868 -1.55491439099708 -1.56326515160418 -1.577210826093766 -1.587206416198264 -1.599406045051994 -1.611457075467465 -1.621719680899006 -1.635326471407684 -1.644102057186701 -1.658889726576289 -1.667215026353569 -1.682050549226719 -1.690579258784428 -1.704577152579947 -1.71439411400582 -1.727021598562919 -1.738485107152905 -1.74870641216631 -1.764850136653072 -1.773343507037862 -1.787179500553137 -1.79724659757757 -1.809425082503145 -1.82142878110522 -1.831789285717047 -1.845255730945746 -1.854240347636231 -1.868743993371208 -1.877450815251262 -1.891707301029816 -1.901075619161799 -1.901803020230689 -1.882166404323062 -1.867998022014711 -1.850868765053289 -1.834696863663307 -1.835643976612683 -1.830802989743016 -1.830321207229878 -1.826876740503337 -1.82481143772484 -1.823269383306365 -1.819387187428972 -1.819337049846367 -1.81402206130598 -1.815104405100458 -1.809355503625057 -1.810471434790815 -1.80495460507409 -1.805215420577706 -1.800995255916951 -1.79987128400772 -1.797313085497674 -1.793774947754639 -1.795893873673895 -1.790631466313903 -1.79044091969694 -1.786768487344652 -1.784885685219589 -1.783205933054144 -1.779434627002757 -1.779281415247511 -1.774060301020675 -1.775050933768636 -1.76940197277795 -1.770418887592028 -1.764985739209511 -1.765175328333643 -1.761014331007151 -1.75985123087416 -1.757333194445629 -1.75375426085155 -1.755912688430607 -1.750611455260554 -1.750459733937833 -1.746759206635173 -1.744898916020428 -1.743200842046205 -1.739446036331813 -1.739273642618826 -1.734084192083449 -1.735034675402111 -1.729436675719632 -1.730376289160066 -1.725071432651288 -1.725039600000935 -1.721354675610985 -1.718479282399883 -1.711853554342235 -1.708573018373805 -1.705229282845522 -1.701143765453934 -1.695022253223568 -1.692570352897948 -1.68513322914941 -1.683893042896549 -1.675685364848203 -1.674587927655417 -1.666515566249505 -1.664884823718195 -1.658033576106469 -1.654883205027317 -1.649607738203553 -1.644565622275442 -1.641271005601662 -1.634554526570106 -1.632766331266255 -1.627915459814934 -1.625809831897874 -1.62060447653777 -1.615572539910023 -1.611985115399653 -1.605840807119381 -1.602888052421643 -1.599613376820529 -1.594575350407841 -1.589056004115297 -1.589835842712138 -1.579176615452073 -1.580830966343306 -1.573963618955146 -1.570108206175277 -1.565874184140401 -1.565335816882497 -1.559481574358128 -1.553207672785879 -1.556242960497612 -1.550337320794757 -1.545805776495841 -1.541693468918876 -1.539858256759309 -1.538526768425602 -1.53130875822754 -1.528606005187064 -1.524611701547807 -1.524541883737137 -1.520144467922765 -1.517145619647323 -1.509624443826756 -1.510384533614738 -1.505928050455296 -1.50493101887355 -1.502314532231334 -1.498807033298052 -1.500909298701707 -1.49565399193888 -1.495444187401002 -1.491815695049767 -1.489885766916365 -1.488236646879022 -1.484431619233749 -1.484315768736398 -1.479078954473624 -1.480090662139195 -1.474390688930281 -1.475465195539522 -1.469973050924398 -1.470250668015162 -1.46599815306298 -1.464903036087559 -1.462326510707735 -1.458821360565963 -1.460879515453426 -1.455795382418279 -1.460164565294183 -1.456940967042856 -1.454786707221839 -1.453344030231188 -1.44933597714724 -1.454040913372027 -1.44905591389314 -1.450260487557403 -1.443955577965862 -1.448491690416309 -1.445609466163012 -1.444796819265768 -1.441567681085264 -1.444475772072522 -1.442718531639132 -1.438246738143138 -1.442964150920061 -1.441350182752384 -1.439768760799947 -1.439524397873184 -1.440577371052273 -1.437545479652978 -1.437839846323073 -1.439842384503635 -1.433544977272395 -1.439196159178293 -1.434383944229397 -1.438123104430704 -1.436043534817353 -1.434152868978247 -1.435457916234525 -1.434309604332233 -1.43554001843392 -1.433763865095862 -1.437827713252224 -1.436139577648718 -1.436164557537377 -1.437632929482699 -1.434696952085047 -1.43903087460781 -1.433710957033519 -1.43970036226099 -1.433240347393799 -1.439671100866223 -1.433771565670095 -1.438940582244031 -1.434815773708601 -1.437481529188642 -1.436360947404116 -1.435890325165196 -1.438167021315957 -1.433300525321242 -1.436308581631445 -1.430366446240189 -1.430696535150359 -1.426628626364769 -1.425074494839958 -1.423083898193322 -1.419581238325625 -1.419198658575668 -1.414211379221199 -1.414997661958238 -1.409490418119802 -1.410387152786202 -1.40506220991805 -1.405192913949183 -1.401080062142978 -1.39983877466356 -1.397416319590842 -1.39375532376582 -1.395985222712036 -1.390621519715711 -1.390491232168961 -1.386805626215378 -1.384927230772027 -1.383215574080615 -1.379468030891311 -1.379300631633104 -1.374125873211017 -1.375077159483296 -1.369422928878537 -1.370449116905522 -1.365008218202577 -1.365245458734156 -1.361036073574825 -1.359880269326226 -1.357384617326385 -1.353786859987111 -1.355962137886694 -1.350644517225061 -1.350474261155794 -1.346825944219681 -1.344915008435051 -1.343229545936302 -1.339459592480768 -1.339310198820072 -1.334124834894035 -1.335083288149108 -1.329422208833927 -1.330452788585083 -1.3250090931131 -1.325252005548248 -1.32103788552754 -1.319883105937131 -1.317390717442797 -1.313789523611685 -1.315968238003105 -1.310647031510912 -1.310476841033573 -1.306832192681339 -1.304917662788318 -1.303231870835954 -1.299462021888618 -1.299312825307898 -1.29413113305462 -1.295085914636936 -1.289424638241776 -1.290455113484735 -1.285011747466367 -1.285258254009907 -1.281040465405317 -1.279885620222982 -1.277396817559209 -1.27379218723626 -1.275974338119515 -1.270649545796764 -1.270479420911351 -1.266838441142998 -1.264920317141587 -1.263234195735605 -1.259464451296468 -1.259315451795725 -1.254137431215204 -1.255088541124762 -1.249427067649626 -1.250457438384386 -1.245014401819635 -1.245264502471566 -1.241043045283095 -1.239888134508834 -1.237402917675617 -1.233794850860834 -1.235980438235926 -1.230652060082615 -1.23048200078913 -1.226844689604658 -1.224922971494854 -1.223236520635258 -1.219466880704316 -1.219318078283552 -1.214143729375788 -1.21509116761259 -1.209429497057476 -1.210459763284037 -1.205017056172903 -1.205270750933225 -1.201045625160873 -1.199890648794685 -1.197409017792029 -1.193797514485408 -1.195986538352336 -1.190654574368467 -1.190484580666906 -1.186850938066316 -1.184925625848122 -1.183238845534909 -1.179469310112167 -1.179320704771379 -1.174150027536372 -1.175093794100417 -1.169431926465325 -1.170462088183689 -1.165019710526171 -1.165276999394885 -1.161048205038651 -1.159893163080536 -1.15741511790844 -1.153800178109982 -1.155992638468747 -1.150657088654317 -1.150487160544684 -1.146857186527975 -1.144928280201389 -1.143241170434561 -1.139471739520016 -1.139323331259206 -1.134156325696955 -1.135096420588243 -1.129434355873175 -1.13046441308334 -1.125022364879439 -1.125283247856543 -1.121050784916428 -1.119895677366389 -1.117421218024851 -1.113802841734556 -1.115998738585158 -1.11065960294017 -1.110489740422463 -1.106863434989634 -1.104930934554658 -1.103243495334213 -1.099474168927866 -1.099325957747033 -1.094162623857539 -1.09509904707607 -1.089436785281025 -1.090466737982993 -1.085025019232706 -1.085289496318203 -1.081053364794207 -1.07989819165224 -1.077427318141261 -1.073805505359131 -1.076004838701569 -1.070662117226021 -1.070492320300241 -1.066869683451293 -1.064933588907925 -1.063245820233865 -1.059476598335716 -1.059328584234861 -1.054168922018122 -1.055101673563897 -1.049439214688874 -1.050469062882644 -1.045027673585973 -1.045295744779861 -1.041055944671985 -1.03990070593809 -1.037433418257671 -1.033808168983705 -1.03601093881798 -1.030664631511871 -1.030494900178019 -1.026875931912953 -1.024936243261193 -1.023248145133516 -1.019479027743565 -1.019331210722687 -1.014175220178706 -1.015104300051724 -1.009441644096723 -1.010471387782296 -1.005030327939241 -1.005301993241521 -1.001058524549763 -0.9999032202239416 -0.9974395183740826 -0.993810832608279 -0.9960170389343908 -0.9906671457977235 -0.9904974800557964 -0.986882180374612 -0.9849388976144603 -0.9832504700331671 -0.9794814571514143 -0.9793338372105134 -0.9741815183392907 -0.9751069265395506 -0.9694440735045732 -0.9704737126819468 -0.9650329822925093 -0.9653082417031796 -0.9610611044275413 -0.9599057345097934 -0.9574456184904936 -0.9538134962328533 -0.9560231390508015 -0.9506696600835747 -0.9505000599335743 -0.9468884288362712 -0.9449415519677278 -0.9432527949328191 -0.9394838865592642 -0.9393364636983402 -0.9341878164998741 -0.9351095530273774 -0.9294465029124224 -0.9304760375815984 -0.9250356366457771 -0.9253144901648392 -0.9210636843053188 -0.9199082487956457 -0.9174517186069042 -0.9138161598574278 -0.9160292391672119 -0.9106721743694265 -0.910502639811352 -0.9068946772979303 -0.9049442063209953 -0.9032551198324706 -0.8994863159671139 -0.8993390901861674 -0.8941941146604578 -0.8951121795152044 -0.8894489323202719 -0.8904783624812508 -0.8850382909990443 -0.8853207386264978 -0.8810662641830964 -0.8799107630814967 -0.8774578187233147 -0.8738188234820018 -0.8760365900431156 -0.8706744929717635 -0.8705077808719854 -0.8669052264616105 -0.8649488165775879 -0.8632633380203288 -0.859488181513286 -0.8593469471458224 -0.8542106528556266 -0.8551168312824329 -0.8494621280473257 -0.8504777516278497 -0.8450489601494987 -0.8453415863485921 -0.8410713371607378 -0.8399263613908642 -0.8374830748718085 -0.8338289702679368 -0.8360623777110581 -0.8306763082920144 -0.8305253498169521 -0.8269298344776171 -0.8249593192607686 -0.8232817784100994 -0.8194911118607893 -0.8193592430971268 -0.814239581607178 -0.8151201021188983 -0.809486006181526 -0.8104704172365669 -0.8050708145268995 -0.8053528963168161 -0.8010981503109081 -0.7998946361343878 -0.7976263797677096 -0.7930893359848399 -0.7823107824852464 -0.7628590060111415 -0.7488814167817174 -0.7313739730435626 -0.7155186189476656 -0.6999501828852879 -0.682266095780399 -0.668254950203789 -0.6492236134833109 -0.6362468129606328 -0.6166789530083471 -0.6038332146291806 -0.5844784330062656 -0.5709324420147991 -0.5527150213808137 -0.537736751216879 -0.5213396426056585 -0.5038722436485572 -0.4921256481760402 -0.4729588961135391 -0.458788609617557 -0.4414410687194228 -0.4254289185535646 -0.4100306221073951 -0.3921596409774274 -0.378376150308252 -0.3590506118186731 -0.3464482960643405 -0.3263906137944249 -0.3142389868133822 -0.2939477670683247 -0.2937567070521992 -0.3049145476523414 -0.3168177496964085 -0.328826948604396 -0.3386472970359059 -0.3550973944894032 -0.363340580179723 -0.3772882224271055 -0.3873938700480371 -0.399485675650026 -0.4115268224570128 -0.4217925631344934 -0.435405266042492 -0.444291002004214 -0.4589685212110945 -0.4672879085890562 -0.4821202962162672 -0.4906588893824607 -0.5047646064297202 -0.5144715103391608 -0.5270970271384625 -0.5386681106452287 -0.5487863209035349 -0.5650331401453949 -0.5734189356134051 -0.5872568968864773 -0.5974340514273433 -0.6095047131011766 -0.6214985280947684 -0.6318621679525341 -0.6453345255805522 -0.6544292924537443 -0.6688227880060147 -0.6775236974867507 -0.6917770480193645 -0.7011552497598303 -0.7019904740804629 -0.6822438006564014 -0.6680734505902531 -0.6510517685456129 -0.6347767724005317 -0.6358269801050066 -0.6308784183185583 -0.630398603563217 -0.6270641943531097 -0.6248910683228726 -0.6233391302959129 -0.6194600696644597 -0.6194158444811735 -0.6142110061234928 -0.6151831997352643 -0.6094283858605434 -0.6105411817803631 -0.6050342356721224 -0.6054028744274791 -0.6010726522502908 -0.5999467125832614 -0.5974960889899982 -0.5938548564918629 -0.5960768771662175 -0.5907068948894457 -0.5905183160302794 -0.5869559411944243 -0.5849653158176217 -0.5832756800436931 -0.5795075092382445 -0.5793602098823186 -0.5742492458381883 -0.5751297284034411 -0.5694748550134376 -0.5704886345815756 -0.5650653698075433 -0.5653627821834163 -0.5610917273404913 -0.5599266594497041 -0.5575161979379524 -0.5538341695887746 -0.5560956919229301 -0.5506868838360969 -0.5505371302711729 -0.5469466604849462 -0.5449785466184597 -0.5432705890357536 -0.5395189185673003 -0.5393524372536316 -0.5342731369009631 -0.535113470036917 -0.5295095579551193 -0.5304460361496138 -0.5251510632493196 -0.525227053850708 -0.5214320719443246 -0.5185547109754263 -0.5120365578345573 -0.5086529271110295 -0.505412286337845 -0.5012191940294777 -0.495099649556907 -0.4927578067477207 -0.4852128597474427 -0.4839627898860978 -0.4757582470836896 -0.4746667222902234 -0.4667045110670189 -0.464963618353001 -0.4581064583419569 -0.4549529520168641 -0.4496873688015862 -0.4447530761252158 -0.4413484019350019 -0.4346299551456486 -0.4329493347585807 -0.4279953685521583 -0.4259928353901973 -0.4206799051133125 -0.4156499362433618 -0.4121725692494251 -0.4059204377174129 -0.4029577994111913 -0.3996862590560163 -0.3946541450426482 -0.3892449489328099 -0.3899146373469437 -0.3792494976875612 -0.3809007133328542 -0.3740432495531779 -0.3702956600250498 -0.3659515804737402 -0.3654112454580409 -0.3596645778504521 -0.3532875815231041 -0.3564259639899359 -0.3504127493703 -0.3458831728291813 -0.341880922768648 -0.3399378873573417 -0.3385965154151508 -0.3313816404630273 -0.3286847998218704 -0.3248006463653201 -0.3246206783719442 -0.320217350158252 -0.3172153666368721 -0.3097040744247883 -0.3105719874645115 -0.3060054467886348 -0.3050064474490929 -0.3024975357236568 -0.2988861953470209 -0.3010933708600448 -0.2957279586183707 -0.2955235192082263 -0.2920006497820657 -0.2899685607187946 -0.2883024550449754 -0.2845093393159127 -0.2843886903461726 -0.2792749574119603 -0.2801610486917405 -0.2744735104425654 -0.2755232727287383 -0.2700663014091783 -0.2704223094140148 -0.2660938232074603 -0.2649574300075146 -0.2625336455454791 -0.258872914925357 -0.2610951050041041 -0.2558334216180733 -0.2602848202828938 -0.2570793067416297 -0.2549226504854857 -0.2533491133963885 -0.2494833152209988 -0.2540336101030234 -0.2493450519920087 -0.250221609669338 -0.2441685140508252 -0.2483914382249364 -0.2459017460100358 -0.2447048728355461 -0.2420466953300369 -0.2438425689972819 -0.2460785524585697 -0.2395233624853967 -0.2426693576722806 -0.2417081751211594 -0.2396580034026945 -0.2398418145783391 -0.2405685521296202 -0.2376707887253384 -0.237885491625874 -0.2399222031691381 -0.2337588008112975 -0.2392228020933633 -0.2345396323294742 -0.2380730114750391 -0.2362917982068749 -0.2340995690795137 -0.2359030100549511 -0.2337061410527985 -0.2388740111060983 -0.2350632142541157 -0.2375131391971863 -0.2365147258627345 -0.2360389838882121 -0.2379630795877812 -0.2346772505910311 -0.2391654257883047 -0.2337488095611386 -0.2397866982074889 -0.2334487710169958 -0.2397021700592024 -0.2339236707012863 -0.2388933472266373 -0.2350617977290154 -0.2374299458828612 -0.2368047616966681 -0.2352877806194115 -0.2415003886083883 -0.2345998744794957 -0.2359940075764082 -0.2307415944542059 -0.230570961501194 -0.2269587764698502 -0.2250547933459422 -0.2232184493738161 -0.219619090853244 -0.219284994522167 -0.2144198028443953 -0.2150287311512178 -0.2096425231509941 -0.210339917768809 -0.2053082339384648 -0.2051413306434018 -0.2015238764355304 -0.1992362301177761 -0.200749686883274 -0.1950546729240747 -0.1956706486569995 -0.1909966679297281 -0.1903656585197968 -0.1871357763204599 -0.1849075292780121 -0.1833501252611098 -0.1795058834189305 -0.1793869675796033 -0.1743342968342144 -0.1751082286762758 -0.1695750339097294 -0.1704018818881286 -0.1652542422229911 -0.1651938754283754 -0.1614798878673783 -0.1592777247804417 -0.1607179846188176 -0.1550862091453657 -0.155647563831657 -0.1510196654390775 -0.1503486875066299 -0.1471560943247613 -0.1448953069410349 -0.1433640971167975 -0.1394974450083873 -0.13939653476657 -0.1343332585172339 -0.1351143573420881 -0.1295743138651192 -0.1304055535676888 -0.1252551171335144 -0.125200422242467 -0.1214816998200914 -0.1192805613913473 -0.1207240847352284 -0.1150888727699398 -0.1156536639480678 -0.1110221797249289 -0.1103512673844079 -0.1071623427864205 -0.1048979612943026 -0.1033664220164491 -0.09949987441623687 -0.09939916125439691 -0.09433955667781758 -0.09511698382991486 -0.08957674327296888 -0.0904078784673404 -0.08525777148678212 -0.08520667070412617 -0.08148427969786939 -0.07928307567719883 -0.08073018485163914 -0.07509153639451402 -0.07565913868473209 -0.0710250411359572 -0.0703530907066469 -0.06716882928040095 -0.06489967733465285 -0.06336941273223773 -0.05950106515425468 -0.05940310042147339 -0.05434357873862593 -0.05512178121472423 -0.04957615453712003 -0.05041343676916152 -0.04525650841055579 -0.04521685848003298 -0.04148179644680371 -0.03929107419270386 -0.04072923719125929 -0.03510166821140533 -0.035656760435429 -0.03103716102732814 -0.03034480172180105 -0.02718737061479787 -0.02488842118802377 -0.02338750387358447 -0.01948557293837077 -0.01942619069128437 -0.01432635723891765 -0.0151516883133255 -0.009546536475349237 -0.01045408069653596 -0.005212181360163042 -0.005282868878134817 -0.00140387766571863 0.0005868229946641895 -0.0005187964643953218 0.0006025561446180454 -0.0008937217368 0.004094202563629667 0.004557689153158228 0.007880895019525843 0.01004667181129534 0.01166450750334909 0.01546291326955374 0.01561686607582623 0.02062359847125941 0.01988883339655618 0.02540705116269447 0.02459019970366201 0.02973336832150627 0.02977208342274324 0.03351495154649677 0.03569861382608709 0.03426730491364002 0.03987991949932133 0.03934823638240444 0.04393617227130227 0.04467653111572926 0.04776826958789843 0.05014414832290522 0.05156313857522374 0.05556214932291926 0.0555067340984468 0.06073395513149948 0.05975647868613371 0.06555265795125809 0.06441377918172651 0.06994365383037872 0.06948995425927269 0.07390658463163451 0.07499889693952067 0.07742256914463784 0.08109485766529455 0.07883880124432531 0.08424812692477814 0.08444800198083255 0.0879371588183744 0.09000064921283213 0.09167780618056139 0.09546104528781048 0.09558905864814403 0.1006546185107266 0.09981806032219212 0.1054942192283549 0.1044609477016448 0.1098979213325276 0.1095221142967789 0.1138708408850498 0.1150257753242987 0.1173910662607132 0.1211149188567161 0.1188129203206589 0.124262768484168 0.1244306058511422 0.1279436437566409 0.1299871122882014 0.1316847233890441 0.1354508231047785 0.1355929494413119 0.1406429204344373 0.1398198601122752 0.1454882067516199 0.1444614807402642 0.1498930276101526 0.1495175824280731 0.1538669814793976 0.1550241797720977 0.1573843407645562 0.1611122552321419 0.1588068202042482 0.1642602541983164 0.1644280259733641 0.1679373952949818 0.1699844579349338 0.1716823984893925 0.175448393696929 0.1755903229534851 0.1806366222738535 0.1798172336244483 0.1854857773437704 0.1844591558406127 0.1898903732568848 0.1895113339664139 0.1938644016016197 0.1950216654862462 0.1973782406481454 0.2011095916075677 0.1988007200878373 0.2042577399124651 0.2044254460955863 0.2079311468333227 0.2099818035816659 0.2116800735897409 0.2154459642890793 0.2155876964656583 0.2206303241132696 0.2198146071366214 0.2254833479359208 0.2244568309409611 0.2298877189036171 0.2295050855047549 0.2338618217238416 0.2350191512003948 0.2373721405317346 0.2411069279829936 0.2387946199714266 0.2442552256266137 0.2444228662178083 0.2479248983716636 0.2499791492283981 0.2516777486900892 0.2554435348812298 0.2555850699778314 0.2606240259526856 0.2598119806487944 0.2654809185280712 0.2644545060413095 0.2698850645503496 0.269498837043096 0.2738592418460635 0.2750166369145434 0.2773660404153239 0.2811050110466751 0.2787874511890018 0.284254173236815 0.2844183508661455 0.2879211490274788 0.2899733316707333 0.2916793626140333 0.2954362676267031 0.2955883165150361 0.3006106696712791 0.2998177622432279 0.3054685498434255 0.3044638509419892 0.3098687903103342 0.3095084010323568 0.3138383881571447 0.3150351572842796 0.3173358089534928 0.3211299551116765 0.3187485829207576 0.3242877821141739 0.3243722866240264 0.3279572148973239 0.329915571952924 0.3317318694269264 0.3353647840889364 0.3356606844341594 0.3405009963155786 0.3399223749166111 0.3453252395436924 0.3446227911759783 0.3496590917976365 0.349751141139336 0.3534499710792118 0.3557071559701074 0.3541576668233042 0.3598947383428761 0.3592331780512744 0.3639660136249415 0.3645857300650226 0.3677535298749342 0.3700498314560428 0.3715932031299965 0.3754635465123902 0.3755612665483483 0.3805473821239921 0.3798535832770102 0.3853586093943773 0.3845799663315543 0.3896812538777369 0.3897011846396253 0.3934570783533878 0.3957091414307778 0.3940403900746635 0.4006116478099778 0.4130045540843416 0.431766160060573 0.4462444793521692 0.4632966579090638 0.4795014143405088 0.4949155565466739 0.5126963553679634 0.5266590421606909 0.5455687501635651 0.5587224461573663 0.5781692456364417 0.5912143110006693 0.610275874767478 0.6241199223486887 0.6418414868113559 0.6578661076146359 0.6703277526164612 0.6898287401462602 0.7031896883935476 0.7216662699581753 0.7363372865163296 0.7532295622332033 0.7695911147346099 0.7848351173245667 0.8028028101709349 0.816537842056228 0.8357417518282022 0.8485209630536582 0.8684575848503638 0.8808085388164681 0.9008065407054191 0.9012956573112891 0.8896419605398287 0.8787851091351067 0.8628404466177236 0.8550536867589117 0.8402179420801847 0.8312845858919913 0.8178376737067813 0.8072767609045892 0.7955343576381486 0.7833389169749488 0.7731698880138689 0.7595087263219876 0.7505013616426616 0.7360007379069045 0.7275602900557328 0.7129272294135828 0.704095418391283 0.6902877579337682 0.6800849978530088 0.6685058316930529 0.6529992845768908 0.6449146628912825 0.6302821964241933 0.6212062304583094 0.6078689992474092 0.5972365795252823 0.5855153201869979 0.5733672113371934 0.5631002831958279 0.5495794667839279 0.5403630711931314 0.5261464711119844 0.5173245011580383 0.503270477610486 0.4935990580139131 0.4930618902830255 0.5123127075357686 0.5275294082412618 0.5406156266765069 0.5589242113942862 0.5594883564645814 0.5637467477531559 0.5647272925706691 0.5676064365995163 0.5701289649653021 0.5715266091360491 0.5755023814839025 0.5754981478833066 0.5805813575233827 0.5797860593827344 0.5854198127842454 0.5845063438494875 0.5897200721016213 0.5896494899360092 0.5934838559418791 0.5956561462482542 0.5941713062321211 0.5998461273029543 0.5992384594033702 0.6039182711822692 0.6046075801036068 0.6077146897582018 0.610054717470553 0.6115900593882689 0.6154549419101175 0.6155537824821611 0.6205431178086874 0.6198395307145574 0.6253733436313509 0.6245588910482749 0.629688937966201 0.6296895821800722 0.633464780851679 0.6356761993818113 0.6341511972841674 0.6398668142060433 0.6392196446466579 0.6439382822356177 0.6445887658627141 0.6477239704676805 0.6500414866697147 0.6515951503962079 0.6554435325810616 0.6555615551108483 0.660519226745912 0.6598557890810822 0.6653386406896696 0.6646014894802367 0.6696032445244245 0.6698253105127805 0.6731244362478449 0.6770481478560891 0.679630837387562 0.6850480566837879 0.6899030502317428 0.6934059720422375 0.7000262465769789 0.7019128242049054 0.7098071735407316 0.7109029495458642 0.7192042040646724 0.7202472700742563 0.7280878525798568 0.7300056407649979 0.7367417403028321 0.7400945736129865 0.7450669389721577 0.7502992882382725 0.7532081062571678 0.7609729036858669 0.7587180604635386 0.7657056152426593 0.7693225011793905 0.773945260958402 0.7794759598905252 0.7824980617032008 0.7890995955707611 0.7919079400207703 0.7952761920923458 0.800259847321832 0.8055474147140659 0.8050546217710556 0.8155987009572276 0.8141468122969959 0.8207110582205659 0.8247567043384388 0.8286049277184296 0.8301916133734746 0.832002817371667 0.8404134022717138 0.8388893725796522 0.8442124167014151 0.849242723304705 0.8527897081839781 0.8550821459308326 0.8562692240168114 0.8635808106853344 0.8662291925426095 0.8699917172815557 0.8703485807460546 0.8746308484865369 0.8778321589929781 0.8850502333489556 0.8844803768989765 0.888551061403535 0.8905964113824225 0.8891698594984627 0.8948140417595413 0.8942230343755573 0.898895745557292 0.8996043123995451 0.9026674820530861 0.9050546357737773 0.9065593455633908 0.9104579496791264 0.910519428993276 0.9155244643557378 0.9147998023439977 0.9203846274790199 0.9195125831007809 0.9247016262513127 0.9246142424985534 0.9284809587958507 0.9306243941684128 0.9291578810220604 0.9347997144916294 0.9342528176238387 0.9387543550778931 0.9348839345063635 0.9375422100599964 0.9401536954683032 0.9414519622112268 0.9455535917656349 0.940794284357647 0.9455475049362216 0.944629976925789 0.9508197384434398 0.9464860882239938 0.9490652110126986 0.9500680912479486 0.9529114307735652 0.9510516581834503 0.9487658600906645 0.9553743369144541 0.9521681821572032 0.953199554743788 0.9552797390006003 0.9549587792296699 0.9543630316378688 0.9572505127894355 0.9570497225898019 0.954992813226039 0.961058441556968 0.9556943053048987 0.9603913721799052 0.9568546742095976 0.958631142358359 0.9607120415354677 0.9590211956243053 0.9612178259237399 0.9559443732958759 0.9598572099617305 0.9573046198250417 0.9584101598474537 0.9588839422631705 0.9568502476201536 0.960243450605095 0.9557651178346037 0.9611786118793554 0.9551348354686831 0.9613630714355639 0.9552193636169696 0.9610037507392073 0.9560371963962707 0.9598589034671106 0.9573833813250733 0.9581181644547144 0.9596371050907774 0.9533173704138397 0.9603205497363508 0.9588237514458195 0.9641832912559826 0.9643519646501885 0.9678545507380847 0.9698659078501836 0.9717120942490919 0.97530833058725 0.9756365391540049 0.9803920396081643 0.9798928025249544 0.9852848982894997 0.9845906258540995 0.9896124672576614 0.9896719965645328 0.9933990497158519 0.9956886555924132 0.9940680721389543 0.9998657512917727 0.9991471103652284 1.00392821778046 1.004557267631585 1.007677550887475 1.010013171918114 1.011580418361798 1.015421538021563 1.015534566096568 1.020477545618346 1.019813304999896 1.025352387530764 1.02452866173478 1.029666458973135 1.029619451779559 1.033443038284004 1.035647160929747 1.03409977440341 1.039834215070481 1.039170195190571 1.043905220271111 1.044574238644753 1.047657232883173 1.050025394255091 1.051566446506111 1.055429976432107 1.055524998909602 1.060478583935326 1.059807176334084 1.065353107575374 1.06452499005522 1.069665584062612 1.069612904965467 1.07344122633129 1.075644324318841 1.074093674287 1.079831551445906 1.079164095074161 1.08390270598526 1.084571658766975 1.087650984421513 1.090022739901824 1.091564121606459 1.095427547024257 1.095522372421776 1.100472285774742 1.099804549846257 1.105350678167525 1.104522665155567 1.109662929709345 1.109606656503808 1.113438646453513 1.11564181003299 1.114087574170588 1.119828887821333 1.11915799495775 1.123900191699408 1.124569078889196 1.127644735959855 1.130020085548556 1.131561796706808 1.135425117616407 1.135519745933948 1.140465987614159 1.13980192335843 1.145348248759675 1.144520340255917 1.149660275356076 1.149600408042149 1.153436066575735 1.155639295747137 1.154081474054178 1.159826224196759 1.15915189484134 1.163897677413557 1.164566499011419 1.167638487498196 1.170017431195287 1.171559471807157 1.175422688208558 1.175517119446121 1.180459689453575 1.179799296870603 1.185345819351826 1.184518015356264 1.189657621002808 1.189594159580491 1.193433486697957 1.195636781461287 1.194075373937767 1.199823560572185 1.199145794724928 1.203895163127706 1.20456391913364 1.207632239036536 1.21001477684202 1.211557146907504 1.215420258800708 1.215514492958294 1.220453391292991 1.219796670382777 1.225343389943977 1.224515690456613 1.229654966649541 1.229587911118831 1.23343090682018 1.235634267175436 1.234069273821357 1.23982089694761 1.239139694608517 1.243892648841855 1.244561339255863 1.247625990574878 1.250012122488753 1.251554822007853 1.255417829392859 1.255511866470468 1.260447093132408 1.259794043894949 1.265340960536126 1.264513365556961 1.269652312296272 1.269581662657172 1.273428326942401 1.275631752889584 1.274063173704945 1.279818233323036 1.279133594492107 1.283890134556003 1.284558759378085 1.287619742113219 1.290009468135486 1.291552497108201 1.295415399985009 1.29550923998264 1.300440794971824 1.299791417407123 1.305338531128277 1.304511040657311 1.309649657943006 1.309575414195514 1.313425747064623 1.315629238603732 1.314057073588535 1.319815569698462 1.319127494375696 1.323887620270151 1.324556179500307 1.32761349365156 1.330006813782218 1.33155017220855 1.33541297057716 1.335506613494814 1.34043449681124 1.339788790919296 1.345336101720427 1.344508715757658 1.349647003589738 1.349569165733854 1.353423167186845 1.355626724317881 1.354050973472124 1.359812906073888 1.359121394259285 1.363885105984299 1.364553599622528 1.367607245189901 1.37000415942895 1.371547847308898 1.37541054116931 1.375503987006986 1.380428198650655 1.379786164431469 1.385333672312578 1.384506390858007 1.38964434923647 1.389562917272195 1.393420587309066 1.39562421003203 1.394044873355714 1.399810242449314 1.399115294142874 1.403882591698448 1.404551019744751 1.407600996728242 1.410001505075681 1.411545522409246 1.41540811176146 1.41550136051916 1.420421900490072 1.419783537943643 1.425331242904728 1.424504065958355 1.429641694883202 1.429556668810537 1.433418007431289 1.435621695746178 1.434038773239303 1.439807578824739 1.439109194026463 1.443880077412597 1.444548439866973 1.447594748266583 1.449998850722414 1.451543197509595 1.455405682353611 1.455498734031333 1.460415602329489 1.459780911455815 1.465328813496879 1.464501741058704 1.469639040529935 1.469550420348877 1.473415427553512 1.475619181460328 1.474032673122892 1.479804915200166 1.479103093910053 1.483877563126746 1.484545859989195 1.487588499804924 1.489996196369146 1.491540872609942 1.495403252945761 1.495496107543506 1.500409304168905 1.499778284967988 1.50532638408903 1.504499416159051 1.509636386176668 1.509544171887218 1.513412847675733 1.515616667174476 1.514026573006482 1.519802251575592 1.519095743034149 1.523875244524409 1.524540718928561 1.527577950641243 1.529991586112554 1.531532654422085 1.535401387399589 1.535488250583851 1.540392765973736 1.539773633200761 1.545313188361976 1.544500027012452 1.549625717026212 1.549523324165123 1.553407774698092 1.555601068865108 1.554001316857987 1.559792104789655 1.559069955366207 1.563873429204158 1.564523149983595 1.567553342625236 1.569981083429374 1.571514214032313 1.575398457052084 1.575475954632547 1.580363837222186 1.579770362364294 1.585289310227775 1.584507361403735 1.589603862648812 1.5895120141969 1.593380961547922 1.595632794121585 1.593858011962087 1.600531739072753 1.612821550592018 1.631690731485031 1.646167083018829 1.663109204059291 1.679421783742477 1.694845809557126 1.712623473132476 1.726580247525884 1.745379805346052 1.758643651522561 1.778096363400954 1.791144564011121 1.810196244169447 1.823932468498915 1.841764090478015 1.857790679039093 1.870144749124139 1.889748831409035 1.903006684901223 1.921590841382633 1.93625989018299 1.953042108383431 1.969511484136577 1.984765370335019 2.002729927935448 2.01645904742142 2.035552807010689 2.048442168418853 2.068384702614877 2.080738791826919 2.100726910107386 2.101108203461516 2.089564564206489 2.078709680559565 2.062657443125401 2.054973778021687 2.040034938587861 2.031209157316449 2.017760277373442 2.007089307054817 1.995454727040116 1.983269169985401 1.973097005778382 1.959429931687181 1.950312416825148 1.935921943272099 1.927487407820245 1.912857482424036 1.904015787793251 1.890100304083995 1.880007601519669 1.86843040311751 1.852816281084568 1.844834754154058 1.83009919293187 1.821130801882766 1.80779160291407 1.797049125675509 1.785435689588966 1.773297464347645 1.763027400960341 1.749500672149121 1.74017412637562 1.726067676477177 1.71725161892255 1.703200730620938 1.693519427415881 1.692874436433254 1.712235311202429 1.727453979665719 1.740432623184184 1.758844302657061 1.759305352972258 1.763671319177614 1.764649896237329 1.767418982749742 1.770049334367269 1.771456862146501 1.775429499248415 1.775419353248501 1.78039241270587 1.779707264747928 1.785346930548758 1.784436596859939 1.789640441503589 1.789462036086236 1.793406459608539 1.795580717672712 1.793988302739798 1.79976621856573 1.799055455911047 1.803842842606726 1.804530183770267 1.807527235908429 1.809975086872521 1.81152031239872 1.815382059674631 1.815474987847355 1.820354172991174 1.819760736079751 1.825300461395864 1.824489144058727 1.829609307368168 1.829502128330299 1.833387384518339 1.835600770806269 1.833968193791843 1.839786905468818 1.839036641154334 1.843862853660076 1.844511369529374 1.847536516617908 1.849961856071683 1.85152540340666 1.855370650345574 1.855482760476042 1.860330281928399 1.859776994446276 1.865265758454182 1.864531742490688 1.869523613926392 1.869637856663008 1.873047039914505 1.876972719280546 1.879447833895238 1.884968147946563 1.889720046739418 1.893330543466695 1.89994885024364 1.901725370355132 1.909727542942699 1.910833202556316 1.919131321829185 1.92016847543945 1.927898907762344 1.929926846130192 1.936668858067345 1.940024826623437 1.944987308374125 1.9501118343885 1.953130709923828 1.960897475110324 1.958535056971216 1.965625706505435 1.969139497687067 1.97386983238286 1.979398563557185 1.982310607853429 1.989019964972728 1.991838193031222 1.995203309856859 2.000181052687026 2.005358469896552 2.004975827136248 2.01552581872174 2.014077065307447 2.020631427622534 2.024569250488665 2.028527531385089 2.030116184797932 2.031819813879343 2.040333493534489 2.038706369087329 2.044136988125873 2.049165326971366 2.052602254334207 2.055002515332798 2.056199477027265 2.063507928449847 2.066150397907802 2.069802772464043 2.070269786111247 2.07455796625105 2.077762412003432 2.084970602750923 2.084292923049204 2.088473665070194 2.09052098280688 2.088986856006139 2.094734133022317 2.094040030883235 2.09882031698175 2.099526916066206 2.102480028203314 2.104975005175744 2.106489598573842 2.110385067443638 2.110440634358469 2.115335519538227 2.114721007709191 2.120311745243532 2.119442836111232 2.124621995653281 2.124426788648781 2.12840356246251 2.130548965592872 2.128974877529738 2.134719805754405 2.134069814131514 2.13867892650235 2.134806538173023 2.137354756210224 2.140074064870271 2.14138221522168 2.14548070953015 2.140715489722841 2.145358560118708 2.144551182290982 2.150746856207951 2.146416341234446 2.148985580414667 2.149880637398176 2.152834034440225 2.150976229607906 2.148582856598344 2.155294428177228 2.151985178664879 2.153124126168246 2.15520234266726 2.154771325379897 2.154283401039836 2.157180765799889 2.156976840354314 2.154914018591231 2.160869496739453 2.155615510670092 2.160318489944419 2.156784927220051 2.158551511760326 2.160524587685695 2.158943799290966 2.161142397348198 2.155761369803553 2.159777301224508 2.15712161633272 2.158334731271912 2.15880654592983 2.15666279377038 2.160163820007063 2.155695370845055 2.161105729643867 2.155056040833877 2.161174126618052 2.155140568982165 2.16093086850372 2.155967449406723 2.15977927286908 2.1571959274753 2.158040768121373 2.159561676515235 2.153134366921518 2.160240640999127 2.158640747953496 2.164107862680441 2.16427456831685 2.167667096888311 2.169786277252151 2.171642347259543 2.175235448351764 2.175557744519198 2.180203094790652 2.17981400789015 2.185212016054012 2.18452087886455 2.18953283665963 2.189484542714759 2.193321653382513 2.195613227016869 2.193885068646631 2.199785842554548 2.198964106872905 2.203852789204917 2.204479871298247 2.207490097037702 2.209933541320081 2.211510671372249 2.215348655786076 2.215455771461762 2.220288600800833 2.219734510365089 2.225279505295276 2.224458914745231 2.229586828375104 2.229431997929788 2.233365641950665 2.235571732354204 2.233916770911088 2.239754306333254 2.238987191698249 2.243829791695569 2.244496842311412 2.247469779033398 2.249945763657059 2.251496699516563 2.255357094196618 2.255446204274795 2.260289639117813 2.259728381699277 2.265280225339888 2.264455243065672 2.269585953464579 2.269425451115696 2.273363829997951 2.275568895743298 2.273910670794677 2.279751642708682 2.278981091581838 2.283827277409715 2.284494262433636 2.287463530571741 2.289943109303793 2.291494374616909 2.295354664788769 2.295443577786968 2.30028334095723 2.299725755211451 2.305277795932037 2.304452918166019 2.309583299111312 2.309419202654037 2.313361250120174 2.315566381457446 2.313904570678266 2.319748979084106 2.318974991465427 2.323824763123866 2.324491682555856 2.327457282110083 2.329940454950523 2.331492049717259 2.33535223538092 2.335440951299142 2.340277042796646 2.339723128723623 2.345275366524187 2.344450593266369 2.349580644758045 2.349412954192376 2.353358670242396 2.355563867171596 2.353898470561855 2.359746315459534 2.358968891349014 2.363822248838016 2.36448910267808 2.367451033648423 2.369937800597255 2.371489724817607 2.375349805973072 2.375438324811315 2.380270744636062 2.379720502235795 2.385272937116337 2.384448268366716 2.389577990404776 2.389406705730717 2.393356090364618 2.395561352885742 2.393892370445444 2.399743651834961 2.398962791232604 2.403819734552162 2.404486522800302 2.407444785186764 2.409935146243988 2.411487399917956 2.41534737656522 2.415435698323487 2.420264446475478 2.419717875747969 2.42527050770849 2.424445943467064 2.429575336051509 2.429400457269059 2.433353510486838 2.435558838599893 2.433886270329032 2.439740988210386 2.438956691116195 2.443817220266311 2.444483942922524 2.447438536725105 2.449932491890721 2.451485075018305 2.455344947157372 2.455433071835662 2.460258148314896 2.459715249260142 2.46526807830064 2.464443618567413 2.469572681698242 2.469394208807399 2.473350930609062 2.475556324314041 2.473880170212623 2.47973832458581 2.478950590999784 2.48381470598046 2.484481363044746 2.487432288263444 2.489929837537452 2.491482750118653 2.495342517749522 2.495430445347835 2.500251850154311 2.499712622772317 2.50526564889279 2.504441293667762 2.509570027344974 2.509387960345742 2.513348350731285 2.51555381002819 2.513874070096211 2.519735660961235 2.518944490883373 2.523812191694607 2.524478783166968 2.527426039801787 2.529927183184185 2.531480425219001 2.53534008834167 2.535427818860006 2.540245551993727 2.539709996284488 2.54526321948494 2.544438968768111 2.549567372991704 2.549381711884081 2.553345770853505 2.555551295742338 2.553867969979801 2.559732997336663 2.558938390766961 2.563809677408757 2.564476203289189 2.567419791340128 2.569924528830916 2.571478100319348 2.575337658933822 2.57542519237218 2.580239253833142 2.579707369796662 2.58526079007709 2.584436643868459 2.589564718638436 2.589375463422424 2.593343190975729 2.595548781456487 2.59386186986339 2.599730333712088 2.598932290650551 2.603807163122906 2.604473623411411 2.607413542878469 2.609921874477652 2.611475775419697 2.615335229525972 2.615422565884356 2.62023295567256 2.619704743308836 2.625258360669239 2.624434318968806 2.62956206428517 2.629369214960762 2.633340611097948 2.635546267170636 2.63385576974698 2.639727670087515 2.63892619053414 2.643804648837054 2.644471043533632 2.647407294416809 2.649919220124382 2.651473450520046 2.655332800118123 2.655419939396526 2.660226657511976 2.659702116821008 2.66525593126139 2.664431994069155 2.669559409931902 2.669362966499103 2.673338031220171 2.675543752884785 2.673849669630568 2.67972500646294 2.678920090417729 2.683802134551204 2.684468463655854 2.687401045955152 2.689916565771112 2.691471125620395 2.695330370710274 2.695417312908699 2.700220359351392 2.699699490333181 2.705253501853543 2.704429669169504 2.709556755578636 2.709356718037445 2.713335451342394 2.715541238598933 2.71384356951416 2.719722342838366 2.718912739541827 2.723799815948866 2.724463322595222 2.727390496791472 2.729911955514523 2.731462907432536 2.735328505164101 2.735409455949045 2.740203821156222 2.739694838565954 2.745240306126488 2.744430280022903 2.749546086428181 2.74933587031535 2.753330378364753 2.755525640289566 2.753818313365665 2.759712196052429 2.758886951873883 2.763798000628615 2.764445753650256 2.767365888775464 2.769901452831343 2.771444467042766 2.775325574816599 2.77539715999774 2.780174892404672 2.779691567729488 2.785216427992288 2.784437614414186 2.789524232050782 2.789324560347126 2.793303565214582 2.795557365546042 2.793675008469765 2.800451083647273 2.812639615765709 2.831613841013434 2.846091622159373 2.862919251092044 2.879345316348842 2.89477212374398 2.912555428743666 2.926495579866047 2.945197918649362 2.958556448805493 2.978033420442263 2.991063147221243 3.010130233458161 3.023729202198223 3.041704967955817 3.057694215807964 3.069985876977237 3.089640568293978 3.102856267467256 3.121478023431344 3.136225352505019 3.152805540382658 3.169488166204159 3.184630959521122 3.202731501538232 3.216294154882806 3.23546405547453 3.248245701261173 3.268451874228864 3.280499045656451 3.300859928758346 3.30064134933175 3.289888785784581 3.277925620333241 3.265651456960192 3.256090584889495 3.239374138355434 3.231416292534139 3.21749472730951 3.207031816060427 3.195286646921399 3.183254985078665 3.172996886610206 3.159352161083071 3.150148350729027 3.135790996917554 3.127497331449348 3.112667895489273 3.104104789986708 3.089672096485716 3.080297902673415 3.06767608268699 3.055784266772097 3.045974285837862 3.029418611892186 3.021355092945698 3.007511236598226 2.997004368081046 2.985256726898887 2.973292521549043 2.962919489016985 2.949429418826007 2.94000466036379 2.925941156400544 2.91725795948277 2.903014001624447 2.893606190240231 2.892447945427926 2.9125243328283 2.92670057796885 2.943399983491968 2.959983834340865 2.958624771932575 2.963895610240546 2.964369529921486 2.967374225155279 2.96987037167719 2.971451919347899 2.97532158730506 2.975348099925385 2.980222946694042 2.979580744671295 2.985353271108975 2.984249867863449 2.989727204327941 2.989035545080911 2.993695481234413 2.994827315975842 2.996955663047584 3.000905750249533 2.998374874871363 3.004067133669657 3.004249817454423 3.007482478313965 3.009796124182438 3.01151536960012 3.015274147731275 3.015403734524241 3.020184706979347 3.019634216003118 3.025306801956081 3.024302415062237 3.029696070192518 3.029075637324971 3.033676406144212 3.034847369109399 3.036935554099631 3.040926437152621 3.038356060114651 3.044087144723007 3.044231003213529 3.047491759023443 3.049782893381602 3.051520460608056 3.055262738402218 3.055411507152928 3.060160815916571 3.059650474369641 3.065272099014399 3.064345013494199 3.069610376750742 3.069211365657683 3.073336061540379 3.076219317583677 3.082415194203025 3.086107679630368 3.089039465699735 3.093554834529625 3.099668483927795 3.101680612760669 3.109548580252619 3.110828259757714 3.11902340988583 3.120097222116335 3.127729441750513 3.129800326053557 3.136675198627563 3.139838097626948 3.145074071198476 3.149685343383173 3.153419731549703 3.160144073413456 3.161502417279 3.166765238189239 3.168458916647384 3.174094123445791 3.17911819724134 3.182265850258962 3.188841002282647 3.19183325023262 3.195095397913503 3.20010979936391 3.205189003884724 3.204849307059615 3.215532159281958 3.213890336310956 3.220718190446885 3.22414275948334 3.228816553010964 3.229362783101063 3.234787174187129 3.241473025218293 3.238025788047645 3.244361279188804 3.248884960655523 3.252557496739741 3.254823552642719 3.256194534228661 3.263400016506492 3.266079144584687 3.269633306452215 3.270143266034614 3.274564306811266 3.277575683006938 3.285057365575274 3.283866432043877 3.288762686696067 3.28976758111001 3.291954216313925 3.29587366470612 3.29335944984355 3.299044608044681 3.29924654975036 3.30243527060885 3.304796042485666 3.306484655775241 3.310277155500283 3.310369381035355 3.315166053526397 3.314594487632559 3.320318085803749 3.319256107114741 3.324708758477631 3.324000297643453 3.328692584088383 3.329795563896001 3.331942237837522 3.335859337438211 3.333389233091832 3.338903217565282 3.33452617185718 3.337309998615761 3.33989510218019 3.341377272423077 3.345372797586793 3.340644236399727 3.34518909410688 3.344424662214347 3.350753196768171 3.346229612237956 3.349072343239018 3.34945414639285 3.353123056066099 3.35022282791104 3.351550216906127 3.356433959861034 3.351304597625196 3.353348417231176 3.354921976351418 3.354726567785434 3.354104438349758 3.357175823001286 3.356868928410958 3.354842765268117 3.360700030727627 3.355488990593458 3.360324830504635 3.356598198223559 3.358638274584677 3.360098096680369 3.359232820916839 3.360388995651328 3.358728730111337 3.36091683290831 3.356441035293035 3.358559022334842 3.358526179613987 3.356618036175918 3.359984857316985 3.355690428046453 3.360997817700511 3.354984787510763 3.361004660606224 3.35501404890553 3.360937209063938 3.355780720410233 3.35986603569343 3.356769436469975 3.358329789747247 3.358808274818365 3.356101727229301 3.36138017268293 3.357960166913813 3.364332153743369 3.363994202001007 3.367622339293848 3.369607314562073 3.371637404460941 3.375127536408407 3.375486491196083 3.380033628778823 3.379687487813515 3.38521835661423 3.38433414986806 3.389619599483981 3.389058051709435 3.393610675008385 3.394859825320003 3.396852428954417 3.400925374238353 3.398283525833222 3.404077080267848 3.404199504982403 3.407445339443238 3.409754578630002 3.411505728573649 3.41524074384272 3.415384518138648 3.420119134789003 3.419607990288457 3.425285845855496 3.42427218574874 3.429673591199453 3.429005506924459 3.433654663576538 3.434818330657334 3.436884131218873 3.44089383801706 3.438306610658565 3.4440540827585 3.444216475995569 3.447425021438935 3.449766800966978 3.45149175671796 3.455249182253262 3.455374950951681 3.460120173105983 3.459601861622644 3.465286565900106 3.464268514069181 3.469672716288931 3.468998960110369 3.473652851623824 3.474815494046429 3.476878031102461 3.480891174392485 3.478300510542155 3.484051568472651 3.484213896117791 3.487418772977279 3.489764146613711 3.491489431818307 3.495246752845415 3.495372324463854 3.5001138749454 3.499599235134816 3.505284136492254 3.504266189169529 3.509670061935662 3.508992711648708 3.513650271746045 3.514812979760579 3.516871930986051 3.520888510767913 3.518294410425742 3.524049054186795 3.524211316240013 3.527412524515619 3.529761492260444 3.531487106918657 3.535244323437565 3.535369697976027 3.540107576784817 3.53959660864699 3.545281707084406 3.544263864269877 3.549667407582395 3.548986463187051 3.553647691868269 3.554810465474727 3.556865830869639 3.560885847143337 3.55828831030933 3.564046539900945 3.564208736362235 3.567406276053959 3.569758837907177 3.571484782019007 3.575241894029716 3.575367071488201 3.580101278624233 3.579593982159163 3.585279277676556 3.584261539370226 3.589664753229128 3.588980214725389 3.593645111990491 3.594807951188875 3.596859730753229 3.600883183518764 3.598282210192922 3.604044025615094 3.604206156484458 3.607400027592299 3.609756183553909 3.611482457119354 3.615239464621865 3.615364445000373 3.620094980463649 3.619591355671337 3.625276848268707 3.624259214470576 3.629662098875859 3.628973966263731 3.633642532112711 3.634805436903024 3.636853630636818 3.640880519894189 3.638276110076511 3.644041511329242 3.644203576606678 3.64739377913064 3.649753529200642 3.651480132219703 3.655237035214016 3.655361818512546 3.660088682303066 3.659588729183509 3.665274418860857 3.664256889570923 3.669659444522592 3.668967717802072 3.673639952234934 3.674802922617173 3.676847530520408 3.680877856269615 3.678270009960099 3.684038997043391 3.6842009967289 3.687387530668982 3.689750874847373 3.69147780732005 3.695234605806166 3.695359192024719 3.700082384142481 3.699586102695683 3.705271989453008 3.70425456467127 3.709656790169323 3.708961469340415 3.713637372357157 3.71480040833132 3.716841430403997 3.720875192645041 3.71826390984369 3.724036482757539 3.724198416851122 3.727381282207323 3.729748220494103 3.731475482420399 3.735232176398314 3.735356565536894 3.7400760859819 3.739583476207855 3.745269560045158 3.744252239771621 3.749654135816057 3.748955220878755 3.75363479247938 3.754797894045469 3.756835330287586 3.760872529020467 3.758257809727276 3.764033968471689 3.764195836973344 3.767375033745664 3.769745566140836 3.771473157520747 3.775229746990465 3.775353939049067 3.780069787821315 3.779580849720028 3.78526713063731 3.784249914871969 3.789651481462787 3.788948972417095 3.7936322126016 3.794795379759619 3.796829230171174 3.800869865395893 3.798251709610866 3.804031454185838 3.804193257095569 3.807368785284007 3.809742911787568 3.811470832621097 3.815227317582617 3.81535131256124 3.82006348966073 3.819578223232202 3.825264701229458 3.824247589972315 3.829648827109522 3.828942723955436 3.833629632723821 3.834792865473765 3.836823130054764 3.840867201771318 3.838245609494457 3.844028939899984 3.844190677217789 3.847362536822345 3.849740257434302 3.851468507721445 3.855224888174769 3.855348686073413 3.860057191500146 3.859575596744375 3.86526227182161 3.864245265072667 3.869646172756252 3.868936475493778 3.873627052846044 3.874790351187915 3.876817029938354 3.880864538146744 3.878239509378047 3.884026425614134 3.88418809734001 3.887356288360687 3.889737603081034 3.891466182821793 3.895222458766919 3.895346059585586 3.900050893339564 3.899572970256548 3.90525984241376 3.904242940173013 3.909643518402987 3.908930227032119 3.913624472968269 3.914787836902065 3.916810929821942 3.920861874522169 3.918232783881888 3.924023115236512 3.924185248685047 3.92734490445982 3.929737490022848 3.931454605257982 3.935228130795497 3.935329885590709 3.940051304199297 3.939552266194056 3.945271400467191 3.944217023712171 3.949666520062515 3.948877300910493 3.953663564901361 3.954725787916046 3.956851091333748 3.960785767662228 3.958292148007409 3.963930483794003 3.964276202763249 3.967207735350856 3.969864445774381 3.971287778044387 3.975399954010925 3.975122106277404 3.980255762968646 3.979291007048513 3.985550388193178 3.983879805598931 3.990048321218186 3.988398816703517 3.994209646250681 3.994044548236116 3.997686714916993 3.996210931370224 4.008461657910151 4.018837514131644 4.031565833028489 4.042233699689811 4.053977605520118 4.066535312057392 4.076428109637865 4.090300758829641 4.098672168249739 4.113789727901256 4.122074037607172 4.136881346048231 4.14553512598857 4.159047348888451 4.169568824688944 4.181247409664289 4.196256967462515 4.204812463967917 4.218981542641093 4.228527226137166 4.241811480210894 4.252061308203036 4.264157424750229 4.276388290914554 4.286595313151109 4.30013021217539 4.308898655967609 4.323547132901012 4.332406433375076 4.346438973648703 4.356101862265612 4.356198944996408 4.337398124500711 4.322145346372432 4.308799844260767 4.290018009379786 4.276036498148907 4.258127488188005 4.243333495768634 4.226100788486995 4.210117600171179 4.194885478423264 4.176974980542394 4.163096601493652 4.143675834881522 4.131024258229605 4.111519120297723 4.098556703763679 4.079398281309269 4.065200441351588 4.047846844541784 4.031870525893607 4.018970882452756 3.999884312761306 3.986112952725737 3.968054161326025 3.953369981064821 3.936073104031007 3.920103871426562 3.904918422584812 3.886910234540054 3.873172594931247 3.853550140753162 3.841175244410339 3.821288190215729 3.808904601759885 3.788907229638435 3.787987070624161 3.800079713980102 3.810899131013518 3.826599424785192 3.833899188513457 3.835331312998946 3.830599707192575 3.830233434143635 3.826455458028559 3.8247228249114 3.82308247018297 3.819317191643826 3.819096529006277 3.813781023404578 3.814820085656743 3.809388360657636 3.810145117798189 3.805033552432679 3.804587167200464 3.801256022141767 3.799030897592212 3.800167304573628 3.794826431671272 3.795093616170557 3.790776259193392 3.790118881432129 3.786576208110563 3.784653886123186 3.783150570234491 3.779274610885741 3.779157416580789 3.773755380011051 3.77487880996422 3.769346750320439 3.770202314796281 3.765007727003794 3.764639756367845 3.761242106807123 3.759055979297472 3.760159395858497 3.75485244582351 3.755087001646665 3.750801298818442 3.750105226946793 3.746597985743361 3.744645964028884 3.743160311041733 3.739268060372387 3.739170442185129 3.733744085269445 3.734900321306398 3.729316906194457 3.730249563027543 3.724927342268554 3.724787981623871 3.720906921958846 3.720432956343454 3.725651236194713 3.720039015550405 3.725782607464573 3.720274017196764 3.725547867416614 3.720799336403903 3.724416959606436 3.722472759990694 3.723033590671694 3.72386141012419 3.721325307424555 3.725055425965967 3.720724864623319 3.725747296959598 3.720396345422821 3.725274456272683 3.720995751723727 3.724362740744933 3.72475065950351 3.720701901358424 3.725214258645043 3.720818334684634 3.725002740485715 3.721397070825515 3.723714690343002 3.723482400264903 3.719110437515065 3.723879240347419 3.718797465879933 3.72010965994768 3.719586684093414 3.719804185442912 3.716045773377767 3.719744369296166 3.716397732940543 3.713586479004242 3.718047616644459 3.715415015636626 3.714793330278124 3.711090518999347 3.71477466365545 3.711701214229609 3.709702549409608 3.707848334060247 3.707419914923754 3.709853838543853 3.703254364768588 3.705408871898332 3.698623690438421 3.703494181938196 3.700390257212691 3.699480538780021 3.696349026381202 3.693996305584893 3.695226859004078 3.689820982373601 3.690139192306851 3.685778876426927 3.685141412505847 3.681591485022036 3.679680347959088 3.678143105406129 3.674301912733245 3.674149327970171 3.668799708163938 3.669865346471929 3.664382328246603 3.665179255845302 3.660046958821583 3.659626901302917 3.656284083529074 3.654029316942589 3.655227080760499 3.649811982354837 3.650181175787954 3.645642514519231 3.64042619436822 3.636478709952266 3.634784716360149 3.633040371853268 3.629402413635454 3.624429436310197 3.61883534506559 3.619700774029375 3.614822298026723 3.612157410767817 3.604415852289505 3.60509324697563 3.600719715262346 3.594461609529329 3.594847260061922 3.590391932026813 3.588108740554139 3.580092742756829 3.580827158618016 3.573907776045259 3.56899936123625 3.568843572230781 3.560903403275319 3.558633218154241 3.554358878007505 3.550770355384138 3.544398790578887 3.542530646552726 3.533987092341701 3.535749694186467 3.526834639868643 3.52463280584132 3.522037973499956 3.514880132323238 3.5132573784548 3.5053083764322 3.504436521636139 3.49581174135906 3.494885088910015 3.487362827075251 3.485037151380571 3.478780493372539 3.474676104207267 3.470300666671863 3.465016027953888 3.461717818538701 3.45522016215699 3.452433530899392 3.445936768454608 3.443057113580059 3.439423170850743 3.435348799347005 3.434788710308401 3.43108653641243 3.429909703778715 3.426828541400309 3.424512854861637 3.423314453289044 3.419171728904165 3.419287450033515 3.413717668701036 3.414979358555501 3.409302034319881 3.410275897795834 3.404979034654074 3.404734643062168 3.401222813471303 3.399113692653398 3.400186072808676 3.394899328151573 3.395124269460631 3.39083649150861 3.390120166515668 3.386664038473018 3.384665427636103 3.383187427201053 3.379289795154179 3.379190729951734 3.373815771032384 3.374905114006095 3.369374382376845 3.370218583475816 3.365038335076084 3.364694595200513 3.36127196179501 3.359077226562436 3.360229975305954 3.354873119179433 3.355159554518795 3.350818522570965 3.350142297284391 3.346656217392034 3.344682958679616 3.343178105144669 3.33930309238042 3.33918641574042 3.333829405670534 3.334904238315937 3.329379961237152 3.33021956159556 3.325042768872095 3.32470054530974 3.321275309597853 3.319079418523233 3.320236075422365 3.314875782804008 3.315165654635206 3.310821036856814 3.310144877162169 3.306662465853694 3.304685613032885 3.303180430044321 3.299305521788269 3.299189042228246 3.293835703831117 3.294906864803764 3.289382390645003 3.290221886495211 3.285045423225365 3.284706793771399 3.281277889475629 3.279081932809084 3.280242175538777 3.27487844642858 3.275171754751616 3.270823551142667 3.270147457039948 3.266668714315354 3.264688267386151 3.263182754943973 3.25930795119612 3.259191668716071 3.253842001991701 3.254909491291591 3.249384820052851 3.250224211394863 3.245048077578631 3.244713042233058 3.241280469353409 3.239084447094936 3.240248275655187 3.234881110053153 3.235177854868027 3.230826065428518 3.230150036917724 3.226674962777012 3.224690921739421 3.223185079843624 3.21931038060397 3.219194295203901 3.213848300152284 3.214912117779417 3.209387249460702 3.210226536294515 3.205050731931899 3.204719290694717 3.201283049231186 3.199086961380788 3.200254375771598 3.194883773677729 3.195183954984438 3.19082857971437 3.190152616795503 3.186681211238672 3.184693576092687 3.183187404743276 3.17931281001182 3.179196921691728 3.173854598312867 3.174914744267244 3.169389678868553 3.170228861194167 3.165053386285164 3.164725539156375 3.161285629108964 3.159089475666639 3.160260475888011 3.154886437302303 3.155190055100848 3.15083109400022 3.150155196673281 3.146687459700329 3.144696230445954 3.143189729642927 3.139315239419669 3.139199548179555 3.13386089647345 3.134917370755073 3.129392108276401 3.130231186093818 3.125056040638434 3.124731787618034 3.121288208986742 3.119091989952492 3.12026657600442 3.114889100926877 3.11519615521726 3.110833608286072 3.110157776551058 3.10669370816199 3.104698884799222 3.103192054542579 3.099317668827518 3.099202174667381 3.093867194634036 3.094919997242899 3.089394537684251 3.09023351099347 3.085058694991702 3.084738036079696 3.08129078886452 3.079094504238342 3.080272676120831 3.074891764551452 3.07520225533367 3.070836122571921 3.070160356428836 3.066699956623648 3.064701539152489 3.06319437944223 3.059320098235367 3.059204801155208 3.05387349279462 3.054922623730724 3.049396967092101 3.050235835893121 3.04506134934497 3.044744284541354 3.041293368742298 3.039097018524194 3.040278776237242 3.034894428176026 3.035208355450082 3.030838636857776 3.030162936306614 3.026706205085309 3.024704193505757 3.023196704341881 3.019322527643217 3.019207427643035 3.013879790955203 3.014925250218552 3.00939939649995 3.010238160792773 3.005064003698235 3.004750533003011 3.001295948620076 2.999099532810044 3.000284876353651 2.9948970918006 2.995214455566492 2.990841151143627 2.990165516184393 2.986712453546966 2.984706847859024 2.983199029241531 2.979324957051067 2.979210054130862 2.973886089115787 2.974927876706378 2.9694018259078 2.970240485692426 2.965066658051505 2.964756781464672 2.961298528497852 2.959102047095896 2.960290976470063 2.954899755425174 2.955220555682902 2.950843665429478 2.950168096062171 2.946718702008625 2.944709502212294 2.943201354141185 2.939327386458917 2.939212680618689 2.933892387276368 2.934930503194207 2.92940425531565 2.930242810592075 2.925069312404772 2.924763029926331 2.92130110837563 2.919104561381746 2.920297076586476 2.914903165738003 2.915225587133301 2.910847641611383 2.910168740466065 2.906727449587757 2.904708993361163 2.903207617864429 2.89932497802009 2.899221180131545 2.893891627316131 2.894941537764294 2.889396745446703 2.890256805292059 2.885058346871295 2.884785090838911 2.88128541444227 2.879128110323186 2.880279045357463 2.874933437052153 2.875198919097877 2.870886279060444 2.870127835979502 2.866776012380923 2.864656542349891 2.863264774476629 2.859258353298022 2.859298801026325 2.853794550281599 2.85505140341333 2.849258293962669 2.850420395325353 2.844853957065132 2.845040327869206 2.840902157119891 2.839805137580719 2.837113103460098 2.833703547532502 2.835695714461216 2.830569539142914 2.830346439176052 2.826584824281849 2.824796110559544 2.823130757979003 2.819361974537176 2.819204636116166 2.813853532411179 2.814987864749382 2.809296522629053 2.81038222028023 2.804881427851767 2.805002868292815 2.800914424149624 2.799812151613091 2.797008026944277 2.794425784248751 2.809479290727102 2.818374714150247 2.832010348218756 2.842140449239297 2.854253002150545 2.866457761194983 2.876599642208447 2.890307664704163 2.898887496771918 2.913861980605392 2.922112017686817 2.937021214748648 2.945481357448044 2.959434102925197 2.969303992363147 2.981974146368653 2.993307589718897 3.003648203834183 3.019676625269131 3.028279852619554 3.042108315138473 3.052085850486757 3.064348011251184 3.076381971772177 3.086710955827115 3.100191717575354 3.109073094757724 3.123665750477338 3.132405215716438 3.146620092363751 3.15601733209252 3.156622334811114 3.137109625847176 3.122898176460826 3.105832483952983 3.088878477695982 3.07671707918859 3.057903197125075 3.043613862084478 3.026145546081459 3.010296562861256 2.994890421221863 2.97708289248575 2.963167854816767 2.943845300893351 2.931150778306239 2.911512779737505 2.898743432760168 2.879311518484918 2.865626932356912 2.847557822915914 2.832623927590475 2.816003522144969 2.798744781077501 2.78679353376542 2.767829870263093 2.753650347380663 2.736117861625472 2.72028283411664 2.704923365383412 2.68701814648341 2.673243848254362 2.653719606764989 2.641301764486974 2.621281849655509 2.609091330756374 2.588820466814085 2.588413561629489 2.599790692354228 2.611652532710385 2.623632064477409 2.632759656829652 2.63601189403863 2.630375416129642 2.630513800459481 2.626500215623022 2.62490178760148 2.623087412981569 2.61942510358718 2.619167782329393 2.613950489416407 2.614946605733378 2.609382020097415 2.61033184679468 2.604946789608328 2.605013658205789 2.600967000515895 2.59978429928908 2.597199944265843 2.593686899987469 2.595774197210242 2.590551968130459 2.590399247747972 2.586620965705027 2.584832848813266 2.583155513033094 2.579382522829098 2.579228669903901 2.573924846022878 2.575005330040853 2.569340409760219 2.570389043792769 2.564920964179444 2.565066247373171 2.56095308518125 2.559809380994341 2.557192035550711 2.553712914139709 2.555767582686349 2.550577007755511 2.550385593262636 2.546642743337824 2.544824926718963 2.543165253840336 2.53937597231574 2.539241695508244 2.533913551281272 2.535026841383032 2.529310565634239 2.530436292024034 2.524840579444201 2.525214472629198 2.520617900332974 2.521186358040321 2.522683875886928 2.5188994838666 2.526463188504255 2.520049726133832 2.525828233732458 2.520844093998367 2.524595922296517 2.522477702789295 2.52314150261505 2.523932663447305 2.521494773436384 2.5251819460426 2.5207185240631 2.52593402595609 2.520309582598471 2.52570094727801 2.520706730097852 2.525116142441803 2.521783299195725 2.51956236967462 2.525894839684725 2.520594043621701 2.525283106801558 2.521441828419981 2.523893653033082 2.523487343063505 2.519218349458423 2.523950493670533 2.51896693189176 2.520236180024311 2.519580343533196 2.519990914439401 2.515959010553415 2.520170860301492 2.516108711314671 2.514339880701113 2.515080256336676 2.514275483952822 2.515473911317806 2.510866227936416 2.515055029971295 2.511745971824075 2.509881512099689 2.507853276858849 2.50752782686711 2.509925091866966 2.503423830780418 2.505535391974965 2.498617349878206 2.503680910934684 2.50030349438834 2.499907029785348 2.496060004755329 2.494749707281764 2.492259498696292 2.488681450689799 2.490819773346533 2.485554585363994 2.48542177882169 2.481636242616503 2.479859310649168 2.478148048204732 2.474409824676601 2.474220581293286 2.468969174175766 2.469991866548563 2.464375987686386 2.465365984841791 2.459960195997233 2.460053392308244 2.455995061903202 2.454782718639457 2.452259720452712 2.448672450671035 2.450861756827638 2.4454182234563 2.440706560684064 2.43652346754673 2.43496367905023 2.433045314651871 2.429510325578811 2.42450068963331 2.419004811077418 2.419827294106008 2.414815957466506 2.41234413976431 2.404329089465154 2.405519737980956 2.400430693636473 2.395215011226195 2.391879899754137 2.389252400343007 2.388789321593825 2.379868451693897 2.381107524933858 2.373952533639722 2.369178323926332 2.368848515029383 2.361011315218675 2.358704471477355 2.354528344019333 2.350896875460771 2.344392450018669 2.342717375549217 2.33390032951735 2.336176185191794 2.326545618242769 2.32538620753819 2.319070613192171 2.313740600639434 2.313937959494482 2.305084085369266 2.304716887951983 2.295856498953524 2.295064051600092 2.287367769873853 2.285145063323928 2.278851746695655 2.274845570219096 2.270427186748495 2.26500968739367 2.261904547535192 2.255133399332637 2.252860021904718 2.245647746828733 2.243810515276931 2.236455810542958 2.234209267663202 2.235469291348082 2.2308622453495 2.23019007009456 2.226873298994773 2.224691817551718 2.223319396087646 2.219279640847522 2.21935870335663 2.213887134712864 2.215105878632132 2.209295693759661 2.210462626792324 2.204892271829725 2.205161134067497 2.200933791845427 2.199867094350269 2.197218712500892 2.193759796467771 2.195804850500312 2.19061220044568 2.190400532831513 2.186708796067482 2.184844390326184 2.183192369999656 2.179397707097535 2.179261983274847 2.173985237044212 2.17503163408273 2.169368041816625 2.170405312472308 2.164951572251733 2.165121086205842 2.160982940169134 2.159830628259303 2.15726261499817 2.153733587495628 2.155840135558479 2.150594231508033 2.150422663600235 2.146700974986497 2.144861921369695 2.14318304794327 2.139411004323776 2.139257669063535 2.133998871682361 2.135030758392571 2.129373620676933 2.13040629059205 2.124956006047744 2.125127036315067 2.120986287971978 2.119832820220102 2.117268715114581 2.113736251120202 2.115846235674889 2.110596745793884 2.110425243478012 2.106707223448157 2.104864575722966 2.103185372842924 2.099413433731627 2.099260295551363 2.094005169842946 2.095033384880398 2.089376050084784 2.090408615491703 2.084958660401012 2.085133284776724 2.080988867849757 2.079835334505955 2.077274815230991 2.073738914744777 2.075852335791299 2.070599260079735 2.07042782335579 2.066713471909817 2.064867230076233 2.063187697742575 2.059415863139476 2.059262922039189 2.05401146800353 2.055036011368226 2.049378479492634 2.050410940391355 2.04496131475428 2.045139533238385 2.040991447727536 2.039837848791806 2.037280915347402 2.03374157836935 2.03585843590771 2.030601774365586 2.030430403233568 2.026719720371474 2.024869884429498 2.023190022642227 2.019418292547325 2.019265548527015 2.014017766164113 2.015038637856051 2.009380908900485 2.010413265291005 2.004963969107548 2.005145781700043 2.000994027605313 1.999840363077656 1.997287015463812 1.993744241993925 1.995864536024121 1.990604288651438 1.990432983111345 1.986725968833134 1.984872538782768 1.983192347541878 1.979420721955174 1.979268175014842 1.974024064324696 1.975041264343878 1.969383338308333 1.970415590190656 1.964966623460816 1.965152030161703 1.96099660748309 1.959842877363508 1.957293115580224 1.953746905618499 1.955870636140532 1.950606802937289 1.950435562989124 1.946732217294794 1.944875193136034 1.94319467244153 1.939423151363024 1.939270801502669 1.93403036248528 1.935043890831706 1.929385767716184 1.930417915090309 1.924969277814084 1.925158278623362 1.920999187360869 1.919845391649359 1.917299215696635 1.913749569243073 1.915876736256943 1.910609317223141 1.910438142866902 1.906738465756453 1.904877847489302 1.90319699734118 1.899425580770874 1.899273427990496 1.894036660645864 1.895046517319531 1.889388197124033 1.890420239989961 1.884971932167352 1.885164527085021 1.881001767238647 1.87984790593521 1.877305315813046 1.873752232867647 1.875882836373354 1.870611831508992 1.870440722744681 1.866744714218113 1.86488050184257 1.863199322240832 1.859428010178725 1.859276054478323 1.854042958806448 1.85504914380736 1.849390626531883 1.850422564889611 1.844974586520619 1.84517077554668 1.841004347116425 1.839850420221062 1.837311415929456 1.833754896492222 1.835888936489763 1.830614345794844 1.830443302622458 1.826750962679771 1.824883156195838 1.823201647140483 1.819430439586573 1.819278680966149 1.814049256967031 1.815051770295186 1.809393055939732 1.810424889789264 1.804977240873887 1.805177024008339 1.801006926994204 1.799852934506914 1.797317516045867 1.793757560116796 1.795895036606176 1.790616860080696 1.790445882500236 1.78675721114143 1.784885810549105 1.783203972040135 1.779432868994423 1.779281307453975 1.774055555127615 1.775054396783014 1.769395485347581 1.770427214688915 1.764979895227154 1.765183272469998 1.76100950687198 1.759855448792764 1.757323616162277 1.75376022374137 1.755901136722586 1.750619374366547 1.750448462378014 1.746763459603089 1.744888464902374 1.743206296939786 1.739435298402273 