# Created by Octave 4.2.2, Thu Aug 08 18:40:34 2019 -03 <mauricio@mauricio-PC>
# name: ecg
# type: matrix
# rows: 1
# columns: 21600
 0.005679306382755663 0.1097978160504347 0.1999326862868195 0.2382985903231226 0.22708534252008 0.1663837424089641 0.08589929501640985 0.000657232218206124 -0.05889266210226 -0.07379683574991837 -0.03111390744554649 0.05620857878263482 0.1692467019328657 0.2775131510667826 0.3659411711322446 0.4050887617093314 0.3941072400957232 0.332883193863189 0.2499434926134774 0.1672054867138016 0.1057639948600382 0.09502745269353183 0.1339194559591534 0.2226032391323266 0.3306143739543512 0.4439391963215202 0.5309268562782403 0.5739841941020807 0.5586345644372758 0.4996613527300567 0.4136317712149015 0.3341759332947382 0.2600368522212276 0.2194483573152721 0.2311630918053086 0.2919211736887542 0.3751821809443925 0.4576876868392213 0.5192844741099529 0.5299294537874829 0.4910706398286496 0.4023951759796868 0.2943568249202126 0.1811119277394337 0.09399435450796337 0.05113710367037536 0.06620418866839789 0.1255791986380294 0.2109865938097377 0.2913160469253011 0.3521259647755344 0.3633097902471722 0.3247666158632838 0.2355455502394988 0.1250458207013375 0.01430735814092307 -0.07467198401986237 -0.1134409148228033 -0.1020404736299201 -0.04146795420295213 0.03915363808911516 0.1242326965941114 0.1839729256074228 0.1986001109590038 0.1562577525109972 0.06853378341305362 -0.04390163918670108 -0.1530244061835575 -0.2281708349544714 -0.237864194220983 -0.2000879102846402 -0.1102826907031916 -0.000941967171085087 0.09697030145643977 0.1717516645428207 0.1968242324069275 0.1714128124468951 0.09699509201337564 0.002549166880615828 -0.09655071997483324 -0.1700109709550643 -0.1987703041277362 -0.170005236880118 -0.09655641981775862 0.002570358044945342 0.09694600934217475 0.1715001937010934 0.1967138080915983 0.1719219589901878 0.09672977212755099 -1.738763784269162e-05 -0.09672417864707802 -0.1719549147242 -0.19669717421105 -0.1715498664736827 -0.09692324821286212 -0.002618864060506162 0.0965922141241003 0.1699524942813098 0.1987927538957272 0.1699560650892243 0.09658748470206557 -0.002608575949609073 -0.09692921752473486 -0.1715306461341068 -0.1967069611495167 -0.1719360905723879 -0.09673491986270981 5.962889820163714e-06 0.09671378987133779 0.1719482275969846 0.1966908654545278 0.1715428432383774 0.09691292242432396 0.002622357940078016 -0.09660471006197499 -0.1699423107518687 -0.1988198385840388 -0.169930254206117 -0.09663273309663521 0.002670153474997398 0.09683449047151318 0.1716885112011829 0.1963595481531204 0.1733189891697258 0.1022015035158133 0.005189868992139429 -0.08604738758588402 -0.162462185292529 -0.1812733479821214 -0.1573392351036609 -0.07716548343614764 0.01669867589639221 0.1203463350943541 0.1946512348490589 0.2263500849880641 0.2001274281153184 0.1279607401892457 0.03293175641440537 -0.06154590781224239 -0.1309084431525879 -0.1569584759884717 -0.1266343576966296 -0.05215585645051651 0.04585009117558492 0.146828846636892 0.2219602348914718 0.2515832192378946 0.2263294313972158 0.1559763400319062 0.06293979736394376 -0.03676719173499184 -0.1052387655652313 -0.1337790542947181 -0.1047261685404898 -0.0263678140133779 0.07222012609106034 0.1679476128741902 0.2466324019501595 0.271845199379261 0.2464674832588138 0.1745856837327402 0.08056054182921323 -0.01704886500515324 -0.09165071206164876 -0.1120517114988396 -0.08644985420127003 -0.01188520233951128 0.08206960016664253 0.1847278005307154 0.2606384102930656 0.2882665460109303 0.260475621072029 0.1858547071886498 0.09067399159370093 -0.001557304728908735 -0.07671485756856564 -0.1016103610865487 -0.07700582142837127 -0.001691857182771194 0.09496384494161492 0.1917415800658802 0.266915748062064 0.2917167315024708 0.2665113486704193 0.1919366889414576 0.09759585270586683 -0.001580575332511985 -0.07497393091813345 -0.1037894083318782 -0.07497573499189357 -0.001577028675886795 0.09759054669414811 0.1919434896114727 0.2665024370335924 0.2917263902122373 0.2669052926254552 0.1917529476159551 0.09495218129827766 -0.001673219728145413 -0.07710374511346729 -0.1064053405416255 -0.08168485540193314 -0.006808344095505418 0.08725698816036127 0.186705440426715 0.2552087550837571 0.283834929986764 0.2547622702274171 0.1820484559612515 0.07933257062401972 -0.0175370183586303 -0.09111464629627557 -0.1172448319609619 -0.09654554605564065 -0.02208365635774748 0.07552946734567657 0.1696989280803476 0.2412245858202633 0.2673973178590822 0.2388151427703216 0.1612503935120849 0.0682916697312151 -0.03498394360613714 -0.1104952937097168 -0.1382428348094805 -0.114075979055339 -0.04156542515930232 0.05493728760226875 0.1458783144250541 0.2226127329938247 0.2422717867962488 0.2175037529524849 0.1385516401225919 0.04001500401752745 -0.05860921729412053 -0.1374429117722036 -0.1624001730292625 -0.1423643209184581 -0.06671328025217772 0.02157479358304133 0.1223353193561345 0.1895545591704469 0.2196630928072741 0.1853569098942513 0.1122373270727187 0.008888328595599985 -0.08673801719768252 -0.1637868592958326 -0.192032938524257 -0.1679550705766105 -0.09751994580175115 0.000481007416721587 0.09636669760178596 0.1722133509041611 0.1964747032642263 0.1717234112020543 0.09675857843093527 0.002757900990174768 -0.09672047679299019 -0.1698463148060969 -0.1988966404371166 -0.1698722288596298 -0.09666704023400846 0.00267788904607326 0.09686494803089227 0.1715851849462082 0.1966548006433515 0.1719796111928606 0.0966875391984916 2.887259671681687e-05 -0.09675452652111216 -0.1719198252674941 -0.1967216879052912 -0.1715245207278187 -0.09693825023262334 -0.002605256090460562 0.09658310431404173 0.169959542773986 0.1987901633112231 0.1699561042528317 0.09659082267997478 -0.002615556266588241 -0.09692515298512272 -0.1715382919180285 -0.1967029049394114 -0.1719399861659379 -0.0967253415793588 0 0.09672534157935873 0.1719403084909923 0.1967021370143464 0.1715385902704612 0.09692337354237827 0.002616903046496652 -0.0965939721324344 -0.1699526020748462 -0.1987974997887875 -0.1699526020748463 -0.09659397213243441 0.002616903046496651 0.09692337354237826 0.1715385902704611 0.1967021370143465 0.1719403084909922 0.0967253415793588 0 -0.09672534157935873 -0.1719403084909923 -0.1967021370143464 -0.1715385902704612 -0.09692337354237827 -0.002616903046496652 0.0965939721324344 0.1699526020748462 0.1987974997887875 0.1699526020748463 0.09659397213243441 -0.002616903046496651 -0.09692337354237826 -0.1715385902704611 -0.1967021370143465 -0.1719403084909922 -0.0967253415793588 0 0.09672534157935873 0.1719403084909923 0.1967021370143464 0.1715385902704612 0.09692337354237827 0.002616903046496652 -0.0965939721324344 -0.1699526020748462 -0.1987974997887875 -0.1699526020748463 -0.09659397213243441 0.002616903046496651 0.09692337354237826 0.1715385902704611 0.1967021370143465 0.1719403084909922 0.0967253415793588 0 -0.09672534157935873 -0.1719403084909923 -0.1967021370143464 -0.1715385902704612 -0.09692337354237827 -0.002616903046496652 0.0965939721324344 0.1699526020748462 0.1987974997887875 0.1699526020748463 0.09659397213243441 -0.002616903046496651 -0.09692337354237826 -0.1715385902704611 -0.1967021370143465 -0.1719403084909922 -0.0967253415793588 0 0.09672534157935873 0.1719403084909923 0.1967021370143464 0.1715385902704612 0.09692337354237827 0.002616903046496652 -0.0965939721324344 -0.1699526020748462 -0.1987974997887875 -0.1699526020748463 -0.09659397213243441 0.002616903046496651 0.09692337354237826 0.1715385902704611 0.1967021370143465 0.1719403084909922 0.0967253415793588 0 -0.09672534157935873 -0.1719403084909923 -0.1967021370143464 -0.1715385902704612 -0.09692337354237827 -0.002616903046496652 0.0965939721324344 0.1699526020748462 0.1987974997887875 0.1699526020748463 0.09659397213243441 -0.002616903046496651 -0.09692337354237826 -0.1715385902704611 -0.1967021370143465 -0.1719403084909922 -0.0967253415793588 0 0.09672534157935873 0.1719403084909923 0.1967021370143464 0.1715385902704612 0.09692337354237827 0.002616903046496652 -0.0965939721324344 -0.1699526020748462 -0.1987974997887875 -0.1699526020748463 -0.09659397213243441 0.002616903046496651 0.09692337354237826 0.1715385902704611 0.1967021370143465 0.1719403084909922 0.0967253415793588 0 -0.09672534157935873 -0.1719403084909923 -0.1967021370143464 -0.1715385902704612 -0.09692337354237827 -0.002616903046496652 0.0965939721324344 0.1699526020748462 0.1987974997887875 0.1699526020748463 0.09659397213243441 -0.002616903046496651 -0.09692337354237826 -0.1715385902704611 -0.1967021370143465 -0.1719403084909922 -0.0967253415793588 0 0.09672534157935873 0.1719403084909923 0.1967021370143464 0.1715385902704612 0.09692337354237827 0.002616903046496652 -0.0965939721324344 -0.1699526020748462 -0.1987974997887875 -0.1699526020748463 -0.09659397213243441 0.002616903046496651 0.09692337354237826 0.1715385902704611 0.1967021370143465 0.1719403084909922 0.0967253415793588 0 -0.09672534157935873 -0.1719403084909923 -0.1967021370143464 -0.1715385902704612 -0.09692337354237827 -0.002616903046496652 0.0965939721324344 0.1699526020748462 0.1987974997887875 0.1699526020748463 0.09659397213243441 -0.002616903046496651 -0.09692337354237826 -0.1715385902704611 -0.1967021370143465 -0.1719403084909922 -0.0967253415793588 0 0.09672534157935873 0.1719403084909923 0.1967021370143464 0.1715385902704612 0.09692337354237827 0.002616903046496652 -0.0965939721324344 -0.1699526020748462 -0.1987974997887875 -0.1699526020748463 -0.09659397213243441 0.002616903046496651 0.09692337354237826 0.1715385902704611 0.1967021370143465 0.1719403084909922 0.0967253415793588 0 -0.09672534157935873 -0.1719403084909923 -0.1967021370143464 -0.1715385902704612 -0.09692337354237827 -0.002616903046496652 0.0965939721324344 0.1699526020748462 0.1987974997887875 0.1699526020748463 0.09659397213243441 -0.002616903046496651 -0.09692337354237826 -0.1715385902704611 -0.1967021370143465 -0.1719403084909922 -0.0967253415793588 0 0.09672409081986601 0.1719405041745072 0.1966995758314912 0.1715342895684397 0.09692141763905389 0.002611009758290343 -0.09659340827075688 -0.169957832546674 -0.1988077398233726 -0.1699546273542478 -0.09660473845163801 0.002619838799548601 0.09691535874519172 0.1715239910100257 0.1966996439144832 0.1719272244674759 0.09670618554727595 -7.483161361341792e-06 -0.09674627989038319 -0.1719394138418775 -0.1967196872643898 -0.1715612505268301 -0.09693317777561554 -0.002638911824822567 0.09659403505445752 0.1699377021395405 0.1987646291632348 0.1699499324468059 0.09656175708687965 -0.002604308002510017 -0.09695058836369785 -0.1715582510374612 -0.1967288633866014 -0.1719191529721803 -0.09688170239093186 0.0007348147463099779 0.1104620986105567 0.1997610197068314 0.2383310996773151 0.2270780399098061 0.1663569239755117 0.0859288146926341 0.0006335362778288589 -0.05886058262898718 -0.07380810412988924 -0.03107935605679417 0.05618329540303961 0.1692690255975211 0.2774911945949605 0.3659456322671369 0.4050611194499631 0.3941218632131644 0.3328618180462476 0.2499545707071666 0.1672026498774563 0.1057830269083006 0.09502221269056095 0.1339400121546827 0.2226025316381242 0.3306168942771852 0.4439303647535194 0.5309260479040694 0.5739661952729072 0.5586269914770178 0.4996620082896804 0.4136317722199779 0.3341777678014126 0.260050435150474 0.2194598990275213 0.2311627620375018 0.2919299290052033 0.3751821809443925 0.4576876868392213 0.5192844741099529 0.5299294537874829 0.4910706398286496 0.4023951759796868 0.2943568249202126 0.1811119277394337 0.09399435450796337 0.05113710367037536 0.06620418866839789 0.1255791986380294 0.2109865938097377 0.2913160469253011 0.3521259647755344 0.3633097902471722 0.3247666158632838 0.2355455502394988 0.1250458207013375 0.01430735814092307 -0.07467198401986237 -0.1134409148228033 -0.1020404736299201 -0.04146795420295213 0.03915363808911516 0.1242326965941114 0.1839729256074228 0.1986001109590038 0.1562577525109972 0.06853378341305362 -0.04390163918670108 -0.1530244061835575 -0.2281708349544714 -0.237864194220983 -0.2000879102846402 -0.1102826907031916 -0.000941967171085087 0.09697030145643977 0.1717516645428207 0.1968242324069275 0.1714128124468951 0.09699509201337564 0.002549166880615828 -0.09655071997483324 -0.1700109709550643 -0.1987703041277362 -0.170005236880118 -0.09655641981775862 0.002570358044945342 0.09694600934217475 0.1715001937010934 0.1967138080915983 0.1719219589901878 0.09672977212755099 -1.738763784269162e-05 -0.09672417864707802 -0.1719549147242 -0.19669717421105 -0.1715498664736827 -0.09692324821286212 -0.002618864060506162 0.0965922141241003 0.1699524942813098 0.1987927538957272 0.1699560650892243 0.09658748470206557 -0.002608575949609073 -0.09692921752473486 -0.1715306461341068 -0.1967069611495167 -0.1719360905723879 -0.09673491986270981 5.962889820163714e-06 0.09671378987133779 0.1719482275969846 0.1966908654545278 0.1715428432383774 0.09691292242432396 0.002622357940078016 -0.09660471006197499 -0.1699423107518687 -0.1988198385840388 -0.169930254206117 -0.09663273309663521 0.002670153474997398 0.09683449047151318 0.1716885112011829 0.1963595481531204 0.1733189891697258 0.1022015035158133 0.005189868992139429 -0.08604738758588402 -0.162462185292529 -0.1812733479821214 -0.1573392351036609 -0.07716548343614764 0.01669867589639221 0.1203463350943541 0.1946512348490589 0.2263500849880641 0.2001274281153184 0.1279607401892457 0.03293175641440537 -0.06154590781224239 -0.1309084431525879 -0.1569584759884717 -0.1266343576966296 -0.05215585645051651 0.04585009117558492 0.146828846636892 0.2219602348914718 0.2515832192378946 0.2263294313972158 0.1559763400319062 0.06293979736394376 -0.03676719173499184 -0.1052387655652313 -0.1337790542947181 -0.1047261685404898 -0.0263678140133779 0.07222012609106034 0.1679476128741902 0.2466324019501595 0.271845199379261 0.2464674832588138 0.1745856837327402 0.08056054182921323 -0.01704886500515324 -0.09165071206164876 -0.1120517114988396 -0.08644985420127003 -0.01188520233951128 0.08206960016664253 0.1847278005307154 0.2606384102930656 0.2882665460109303 0.260475621072029 0.1858547071886498 0.09067399159370093 -0.001557304728908735 -0.07671485756856564 -0.1016103610865487 -0.07700582142837127 -0.001691857182771194 0.09496384494161492 0.1917415800658802 0.266915748062064 0.2917167315024708 0.2665113486704193 0.1919366889414576 0.09759585270586683 -0.001580575332511985 -0.07497393091813345 -0.1037894083318782 -0.07497573499189357 -0.001577028675886795 0.09759010538553088 0.1919441633149354 0.2665014748917583 0.29172770440804 0.2669035546577443 0.1917551897299781 0.09494934541949136 -0.001669690587930494 -0.07710807758830211 -0.1064000832968037 -0.08169117111768871 -0.006800822881363949 0.08724809982341021 0.1867158736561528 0.2551965811306649 0.2838490609603376 0.254745942417449 0.1820672478648636 0.07931145614268559 -0.01751303336677586 -0.0911418328946506 -0.117214060131088 -0.09658035512238992 -0.02204426743269104 0.07548483356327285 0.1697496404808941 0.2411667226915351 0.2674637500499156 0.238738202893404 0.1613405951440554 0.06818410408090998 -0.03485252094845581 -0.1106617310385792 -0.1380197742266473 -0.1144064298724741 -0.04095350526945766 0.05169029774648776 0.1448233432198144 0.2230829330889437 0.2419609987126078 0.2177414978970167 0.1383546083439963 0.04018724005723821 -0.05876599656192091 -0.1372952782395491 -0.1625435456551967 -0.1422208482128339 -0.06686137495423101 0.02173294959463662 0.1221595669788191 0.1897598988982909 0.2194058757620853 0.1857173392697966 0.1115991249576887 0.01215831860240952 -0.08570312491088837 -0.1642395840376038 -0.1917373043807654 -0.1681797305598065 -0.0973341571630639 0.0003183780145137617 0.09651532056126368 0.1720725925113238 0.1966123280586901 0.1715846989733015 0.09690277280925767 0.002602900571714608 -0.09654723975970309 -0.1700496851616494 -0.1986409315281842 -0.170231535532864 -0.09602964282460814 -0.0005915546386375814 0.09583005574409814 0.1720379096879793 0.1963591664998599 0.1722042711760565 0.09650175055980434 0.000191501998924642 -0.09690314948058987 -0.1717790668746568 -0.1968593126997549 -0.171385808499066 -0.09708244461094576 -0.002450255672000401 0.09640986728075464 0.1701629131295385 0.1985344544022907 0.170315410926066 0.09595342527057446 0.0006538874181226009 -0.09589026069832859 -0.1719910166597996 -0.1964072707959197 -0.1721646461491338 -0.09653955294067154 -0.0001626294022078251 0.09687396453883644 0.1717995500981549 0.1968397618088101 0.1713998780417084 0.09706756792070068 0.002461902628036492 -0.09642073509914731 -0.1701559724303987 -0.1985417908798551 -0.1703119087480806 -0.09595657472303411 -0.0006525406382141907 0.09588848125558413 0.1719913150122322 0.1964065028708549 0.1721649684741881 0.09653955294067154 0.0001626294022078251 -0.09687396453883644 -0.1717995500981549 -0.1968397618088101 -0.1713998780417084 -0.09706756792070068 -0.002461902628036492 0.09642073509914731 0.1701559724303987 0.1985417908798551 0.1703119087480806 0.09595657472303411 0.0006525406382141907 -0.09588848125558413 -0.1719913150122322 -0.1964065028708549 -0.1721649684741881 -0.09653955294067154 -0.0001626294022078251 0.09687396453883644 0.1717995500981549 0.1968397618088101 0.1713998780417084 0.09706756792070068 0.002461902628036492 -0.09642073509914731 -0.1701559724303987 -0.1985417908798551 -0.1703119087480806 -0.09595657472303411 -0.0006525406382141907 0.09588848125558413 0.1719913150122322 0.1964065028708549 0.1721649684741881 0.09653955294067154 0.0001626294022078251 -0.09687396453883644 -0.1717995500981549 -0.1968397618088101 -0.1713998780417084 -0.09706756792070068 -0.002461902628036492 0.09642073509914731 0.1701559724303987 0.1985417908798551 0.1703119087480806 0.09595657472303411 0.0006525406382141907 -0.09588848125558413 -0.1719913150122322 -0.1964065028708549 -0.1721649684741881 -0.09653955294067154 -0.0001626294022078251 0.09687396453883644 0.1717995500981549 0.1968397618088101 0.1713998780417084 0.09706756792070068 0.002461902628036492 -0.09642073509914731 -0.1701559724303987 -0.1985417908798551 -0.1703119087480806 -0.09595657472303411 -0.0006525406382141907 0.09588848125558413 0.1719913150122322 0.1964065028708549 0.1721649684741881 0.09653955294067154 0.0001626294022078251 -0.09687396453883644 -0.1717995500981549 -0.1968397618088101 -0.1713998780417084 -0.09706756792070068 -0.002461902628036492 0.09642073509914731 0.1701559724303987 0.1985417908798551 0.1703119087480806 0.09595657472303411 0.0006525406382141907 -0.09588848125558413 -0.1719913150122322 -0.1964065028708549 -0.1721649684741881 -0.09653955294067154 -0.0001626294022078251 0.09687396453883644 0.1717995500981549 0.1968397618088101 0.1713998780417084 0.09706756792070068 0.002461902628036492 -0.09642073509914731 -0.1701559724303987 -0.1985417908798551 -0.1703119087480806 -0.09595657472303411 -0.0006525406382141907 0.09588848125558413 0.1719913150122322 0.1964065028708549 0.1721649684741881 0.09653955294067154 0.0001626294022078251 -0.09687396453883644 -0.1717995500981549 -0.1968397618088101 -0.1713998780417084 -0.09706756792070068 -0.002461902628036492 0.09642073509914731 0.1701559724303987 0.1985417908798551 0.1703119087480806 0.09595657472303411 0.0006525406382141907 -0.09588848125558413 -0.1719913150122322 -0.1964065028708549 -0.1721649684741881 -0.09653955294067154 -0.0001626294022078251 0.09687396453883644 0.1717995500981549 0.1968397618088101 0.1713998780417084 0.09706756792070068 0.002461902628036492 -0.09642073509914731 -0.1701559724303987 -0.1985417908798551 -0.1703119087480806 -0.09595657472303411 -0.0006525406382141907 0.09588848125558413 0.1719913150122322 0.1964065028708549 0.1721649684741881 0.09653955294067154 0.0001626294022078251 -0.09687396453883644 -0.1717995500981549 -0.1968397618088101 -0.1713998780417084 -0.09706756792070068 -0.002461902628036492 0.09642073509914731 0.1701559724303987 0.1985417908798551 0.1703119087480806 0.09595657472303411 0.0006525406382141907 -0.09588848125558413 -0.1719913150122322 -0.1964065028708549 -0.1721649684741881 -0.09653955294067154 -0.0001626294022078251 0.09687396453883644 0.1717995500981549 0.1968397618088101 0.1713998780417084 0.09706756792070068 0.002461902628036492 -0.09642073509914731 -0.1701559724303987 -0.1985417908798551 -0.1703119087480806 -0.09595657472303411 -0.0006525406382141907 0.09588848125558413 0.1719913150122322 0.1964065028708549 0.1721649684741881 0.09653955294067154 0.0001626294022078251 -0.09687396453883644 -0.1717995500981549 -0.1968397618088101 -0.1713998780417084 -0.09706756792070068 -0.002461902628036492 0.09642073509914731 0.1701559724303987 0.1985417908798551 0.1703119087480806 0.09595657472303411 0.0006525406382141907 -0.09588848125558413 -0.1719913150122322 -0.1964065028708549 -0.1721649684741881 -0.09653955294067154 -0.0001626294022078251 0.09687271377934371 0.1717997457816699 0.1968372006259549 0.171395577339687 0.09706561201737632 0.002456009339830183 -0.09642017123746979 -0.1701612029022264 -0.1985520309144403 -0.170313934027482 -0.09596734104223771 -0.0006496048851622409 0.09588046645839757 0.1719767157517969 0.1964040097709916 0.1721518844506718 0.09652039690858871 0.0001551462408464815 -0.09689490284986089 -0.1717986554490402 -0.1968573120588536 -0.1714225382980774 -0.09707737215393794 -0.002483911406362407 0.09642079802117043 0.170141072495093 0.1985089202543025 0.1703092391200401 0.09592435967747935 0.0006651356822008251 -0.0959156960769037 -0.1720109757792324 -0.1964332292431098 -0.1721438129553762 -0.09669591375224462 0.0005721853441021546 0.1106107215700344 0.1996202613139941 0.2384687244717788 0.2269393276810534 0.1665011183538341 0.08577381427417392 0.0008067733111159411 -0.05906395298453965 -0.07355239522095687 -0.03143866273002843 0.05682069281243993 0.1659995819128103 0.2764563023081663 0.366398357008908 0.4047654853064716 0.3943465231963604 0.3326760294075604 0.2501172001093743 0.1670540269179786 0.1059237853011379 0.0948845878960972 0.1340787243834353 0.2224583372598018 0.3307718946956454 0.4437571277202323 0.531129418259622 0.5737104863639749 0.558986298150252 0.4990246108802801 0.4169012159046887 0.3352126600882068 0.2595977104087028 0.219755533171013 0.2309381020543058 0.2921157176438907 0.3750195515421847 0.457836309798699 0.5191437157171155 0.5300670785819467 0.490931927599897 0.4025393703580093 0.2942018245017525 0.1812851647727209 0.0937909841524109 0.0513928125793077 0.06584488199516363 0.1262165960474298 0.2077171501250269 0.290281154638507 0.3525786895173055 0.3630141561036805 0.3249912758464796 0.2353597616008115 0.1252084501035453 0.01415873518144537 -0.07453122562702505 -0.113578539617267 -0.1019017614011674 -0.04161214858127453 0.03930863850757533 0.1240594595608244 0.1841762959629752 0.1983444020500716 0.1566170591842315 0.0678963860036533 -0.04063219550199024 -0.1519895138967633 -0.2286235596962425 -0.2375685600774913 -0.2003125702678361 -0.1100969020645044 -0.001104596573292912 0.09711892441591749 0.1716109061499833 0.1969618572013913 0.1712741002181424 0.09713928639169804 0.002394166462155668 -0.09637748294154613 -0.1702143413106168 -0.1985145952188039 -0.1703645435533522 -0.0959190224083583 -0.0006990856397655002 0.09591111705538062 0.1719529184428645 0.1964181739481067 0.1721466189733837 0.09654398348886373 0.0001452417643651319 -0.09687280160655572 -0.1718141563313627 -0.1968347990055138 -0.1714111542449299 -0.09706744259118454 -0.002463863642046002 0.09641897709081321 0.1701558646368622 0.1985370449867949 0.1703153717624586 0.0959500872926653 0.0006608677351017684 -0.09589432523794074 -0.171983370875878 -0.196411327006025 -0.1721607505555839 -0.09654913122402257 -0.0001566665123876613 0.09686241283081549 0.1718074692041473 0.1968284902489915 0.1714041310096246 0.09705711680264636 0.002467357521617853 -0.0964314730286879 -0.1701456811074212 -0.1985641296751065 -0.1702895608793512 -0.09599533568723491 -0.0005992902097134441 0.09579959818471903 0.1721412359429541 0.1960639140096287 0.1735436491529217 0.102015714877126 0.005352498394347251 -0.08619601054536172 -0.1623214268996916 -0.1814109727765852 -0.1572005228749081 -0.07730967781447004 0.01685367631485237 0.1201730980610671 0.1948546052046114 0.2260943760791317 0.2004867347885526 0.1273233427798454 0.03620120009911621 -0.06051101552544823 -0.1313611678943591 -0.15666284184498 -0.1268590176798255 -0.05197006781182926 0.04568746177337709 0.1469774695963697 0.2218194764986345 0.2517208440323583 0.2261907191684631 0.1561205344102286 0.06278479694548361 -0.03659395470170476 -0.1054421359207838 -0.1335233453857858 -0.1050854752137241 -0.02573041660397758 0.06895068240634948 0.166912720587396 0.2470851266919306 0.2715495652357693 0.2466921432420098 0.174399895094053 0.08072317123142106 -0.01719748796463094 -0.09150995366881144 -0.1121893362933034 -0.08631114197251731 -0.01202939671783369 0.0822246005851027 0.1845545634974284 0.2608417806486181 0.288010837101998 0.2608349277452632 0.1852173097792495 0.09394343527841177 -0.000522412442114596 -0.07716758231033678 -0.101314726943057 -0.07723048141156719 -0.00150606854408395 0.09480121553940711 0.1918902030253578 0.2667749896692267 0.2918543562969346 0.2663726364416665 0.19208088331978 0.09744085228740669 -0.001407338299224899 -0.07517730127368592 -0.1035336994229458 -0.07533504166512782 -0.0009396312664864799 0.09432110300943729 0.1909085973246785 0.2669551617753635 0.2914307560687457 0.267129952608651 0.1915671589772678 0.09511481070048546 -0.001821842687623114 -0.07696298672062996 -0.1065429653360892 -0.08154614317318044 -0.00695253847382782 0.08741198857882145 0.1865322033934279 0.2554121254393096 0.2835792210778317 0.2551215769006513 0.1814110585518511 0.08260201430873054 -0.01650212607183615 -0.09156737103804671 -0.1169491978174702 -0.09677020603883658 -0.02189786771906023 0.07536683794346875 0.1698475510398253 0.2410838274274259 0.2675349426535459 0.2386764305415689 0.1613945878904073 0.06813666931275493 -0.03481070657285007 -0.1106986640652692 -0.1379871259005482 -0.1144352857285732 -0.04092802774990199 0.0516678439175579 0.14484342213826 0.2230654577355959 0.2419761526527572 0.2177284129356809 0.1383658514839047 0.04017763341973528 -0.05875784025359822 -0.1373021533793663 -0.1625377978237263 -0.1422256086897054 -0.06685747463050014 0.02172979400150149 0.1221620823228474 0.1897579295259993 0.2194073838983417 0.1857162165674855 0.1115999296633183 0.01215777228031082 -0.08570312491088837 -0.1642395840376038 -0.1917373043807654 -0.1681797305598065 -0.0973341571630639 0.0003183780145137617 0.09651532056126368 0.1720725925113238 0.1966123280586901 0.1715846989733015 0.09690277280925767 0.002602900571714608 -0.09654723975970309 -0.1700496851616494 -0.1986409315281842 -0.170231535532864 -0.09602964282460814 -0.0005915546386375814 0.09583005574409814 0.1720379096879793 0.1963591664998599 0.1722042711760565 0.09650175055980434 0.000191501998924642 -0.09690314948058987 -0.1717790668746568 -0.1968593126997549 -0.171385808499066 -0.09708244461094576 -0.002450255672000401 0.09640986728075464 0.1701629131295385 0.1985344544022907 0.170315410926066 0.09595342527057446 0.0006538874181226009 -0.09589026069832859 -0.1719910166597996 -0.1964072707959197 -0.1721646461491338 -0.09653955294067154 -0.0001626294022078251 0.09687396453883644 0.1717995500981549 0.1968397618088101 0.1713998780417084 0.09706756792070068 0.002461902628036492 -0.09642073509914731 -0.1701559724303987 -0.1985417908798551 -0.1703119087480806 -0.09595657472303411 -0.0006525406382141907 0.09588848125558413 0.1719913150122322 0.1964065028708549 0.1721649684741881 0.09653955294067154 0.0001626294022078251 -0.09687396453883644 -0.1717995500981549 -0.1968397618088101 -0.1713998780417084 -0.09706756792070068 -0.002461902628036492 0.09642073509914731 0.1701559724303987 0.1985417908798551 0.1703119087480806 0.09595657472303411 0.0006525406382141907 -0.09588848125558413 -0.1719913150122322 -0.1964065028708549 -0.1721649684741881 -0.09653955294067154 -0.0001626294022078251 0.09687396453883644 0.1717995500981549 0.1968397618088101 0.1713998780417084 0.09706756792070068 0.002461902628036492 -0.09642073509914731 -0.1701559724303987 -0.1985417908798551 -0.1703119087480806 -0.09595657472303411 -0.0006525406382141907 0.09588848125558413 0.1719913150122322 0.1964065028708549 0.1721649684741881 0.09653955294067154 0.0001626294022078251 -0.09687396453883644 -0.1717995500981549 -0.1968397618088101 -0.1713998780417084 -0.09706756792070068 -0.002461902628036492 0.09642073509914731 0.1701559724303987 0.1985417908798551 0.1703119087480806 0.09595657472303411 0.0006525406382141907 -0.09588848125558413 -0.1719913150122322 -0.1964065028708549 -0.1721649684741881 -0.09653955294067154 -0.0001626294022078251 0.09687396453883644 0.1717995500981549 0.1968397618088101 0.1713998780417084 0.09706756792070068 0.002461902628036492 -0.09642073509914731 -0.1701559724303987 -0.1985417908798551 -0.1703119087480806 -0.09595657472303411 -0.0006525406382141907 0.09588848125558413 0.1719913150122322 0.1964065028708549 0.1721649684741881 0.09653955294067154 0.0001626294022078251 -0.09687396453883644 -0.1717995500981549 -0.1968397618088101 -0.1713998780417084 -0.09706756792070068 -0.002461902628036492 0.09642073509914731 0.1701559724303987 0.1985417908798551 0.1703119087480806 0.09595657472303411 0.0006525406382141907 -0.09588848125558413 -0.1719913150122322 -0.1964065028708549 -0.1721649684741881 -0.09653955294067154 -0.0001626294022078251 0.09687396453883644 0.1717995500981549 0.1968397618088101 0.1713998780417084 0.09706756792070068 0.002461902628036492 -0.09642073509914731 -0.1701559724303987 -0.1985417908798551 -0.1703119087480806 -0.09595657472303411 -0.0006525406382141907 0.09588848125558413 0.1719913150122322 0.1964065028708549 0.1721649684741881 0.09653955294067154 0.0001626294022078251 -0.09687396453883644 -0.1717995500981549 -0.1968397618088101 -0.1713998780417084 -0.09706756792070068 -0.002461902628036492 0.09642073509914731 0.1701559724303987 0.1985417908798551 0.1703119087480806 0.09595657472303411 0.0006525406382141907 -0.09588848125558413 -0.1719913150122322 -0.1964065028708549 -0.1721649684741881 -0.09653955294067154 -0.0001626294022078251 0.09687396453883644 0.1717995500981549 0.1968397618088101 0.1713998780417084 0.09706756792070068 0.002461902628036492 -0.09642073509914731 -0.1701559724303987 -0.1985417908798551 -0.1703119087480806 -0.09595657472303411 -0.0006525406382141907 0.09588848125558413 0.1719913150122322 0.1964065028708549 0.1721649684741881 0.09653955294067154 0.0001626294022078251 -0.09687396453883644 -0.1717995500981549 -0.1968397618088101 -0.1713998780417084 -0.09706756792070068 -0.002461902628036492 0.09642073509914731 0.1701559724303987 0.1985417908798551 0.1703119087480806 0.09595657472303411 0.0006525406382141907 -0.09588848125558413 -0.1719913150122322 -0.1964065028708549 -0.1721649684741881 -0.09653955294067154 -0.0001626294022078251 0.09687396453883644 0.1717995500981549 0.1968397618088101 0.1713998780417084 0.09706756792070068 0.002461902628036492 -0.09642073509914731 -0.1701559724303987 -0.1985417908798551 -0.1703119087480806 -0.09595657472303411 -0.0006525406382141907 0.09588848125558413 0.1719913150122322 0.1964065028708549 0.1721649684741881 0.09653955294067154 0.0001626294022078251 -0.09687396453883644 -0.1717995500981549 -0.1968397618088101 -0.1713998780417084 -0.09706756792070068 -0.002461902628036492 0.09642073509914731 0.1701559724303987 0.1985417908798551 0.1703119087480806 0.09595657472303411 0.0006525406382141907 -0.09588848125558413 -0.1719913150122322 -0.1964065028708549 -0.1721649684741881 -0.09653955294067154 -0.0001626294022078251 0.09687271377934371 0.1717997457816699 0.1968372006259549 0.171395577339687 0.09706561201737632 0.002456009339830183 -0.09642017123746979 -0.1701612029022264 -0.1985520309144403 -0.170313934027482 -0.09596734104223771 -0.0006496048851622409 0.09588046645839757 0.1719767157517969 0.1964040097709916 0.1721518844506718 0.09652039690858871 0.0001551462408464815 -0.09689490284986089 -0.1717986554490402 -0.1968573120588536 -0.1714225382980774 -0.09707737215393794 -0.002483911406362407 0.09642079802117043 0.170141072495093 0.1985089202543025 0.1703092391200401 0.09592435967747935 0.0006651356822008251 -0.0959156960769037 -0.1720109757792324 -0.1964332292431098 -0.1721438129553762 -0.09669591375224462 0.0005721853441021546 0.1106107215700344 0.1996202613139941 0.2384687244717788 0.2269393276810534 0.1665011183538341 0.08577381427417392 0.0008067733111159411 -0.05906395298453965 -0.07355239522095687 -0.03143866273002843 0.05682069281243993 0.1659995819128103 0.2764563023081663 0.366398357008908 0.4047654853064716 0.3943465231963604 0.3326760294075604 0.2501172001093743 0.1670540269179786 0.1059237853011379 0.0948845878960972 0.1340787243834353 0.2224583372598018 0.3307718946956454 0.4437571277202323 0.531129418259622 0.5737104863639749 0.558986298150252 0.4990246108802801 0.4169012159046887 0.3352126600882068 0.2595977104087028 0.219755533171013 0.2309381020543058 0.2921157176438907 0.3750195515421847 0.457836309798699 0.5191437157171155 0.5300670785819467 0.490931927599897 0.4025393703580093 0.2942018245017525 0.1812851647727209 0.0937909841524109 0.0513928125793077 0.06584488199516363 0.1262165960474298 0.2077171501250269 0.290281154638507 0.3525786895173055 0.3630141561036805 0.3249912758464796 0.2353597616008115 0.1252084501035453 0.01415873518144537 -0.07453122562702505 -0.113578539617267 -0.1019017614011674 -0.04161214858127453 0.03930863850757533 0.1240594595608244 0.1841762959629752 0.1983444020500716 0.1566170591842315 0.0678963860036533 -0.04063219550199024 -0.1519895138967633 -0.2286235596962425 -0.2375685600774913 -0.2003125702678361 -0.1100969020645044 -0.001104596573292912 0.09711892441591749 0.1716109061499833 0.1969618572013913 0.1712741002181424 0.09713928639169804 0.002394166462155668 -0.09637748294154613 -0.1702143413106168 -0.1985145952188039 -0.1703645435533522 -0.0959190224083583 -0.0006990856397655002 0.09591111705538062 0.1719529184428645 0.1964181739481067 0.1721466189733837 0.09654398348886373 0.0001452417643651319 -0.09687280160655572 -0.1718141563313627 -0.1968347990055138 -0.1714111542449299 -0.09706744259118454 -0.002463863642046002 0.09641897709081321 0.1701558646368622 0.1985370449867949 0.1703153717624586 0.0959500872926653 0.0006608677351017684 -0.09589432523794074 -0.171983370875878 -0.196411327006025 -0.1721607505555839 -0.09654913122402257 -0.0001566665123876613 0.09686241283081549 0.1718074692041473 0.1968284902489915 0.1714041310096246 0.09705711680264636 0.002467357521617853 -0.0964314730286879 -0.1701456811074212 -0.1985641296751065 -0.1702895608793512 -0.09599533568723491 -0.0005992902097134441 0.09579959818471903 0.1721412359429541 0.1960639140096287 0.1735436491529217 0.102015714877126 0.005352498394347251 -0.08619601054536172 -0.1623214268996916 -0.1814109727765852 -0.1572005228749081 -0.07730967781447004 0.01685367631485237 0.1201730980610671 0.1948546052046114 0.2260943760791317 0.2004867347885526 0.1273233427798454 0.03620120009911621 -0.06051101552544823 -0.1313611678943591 -0.15666284184498 -0.1268590176798255 -0.05197006781182926 0.04568746177337709 0.1469774695963697 0.2218194764986345 0.2517208440323583 0.2261907191684631 0.1561205344102286 0.06278479694548361 -0.03659395470170476 -0.1054421359207838 -0.1335233453857858 -0.1050854752137241 -0.02573041660397758 0.06895068240634948 0.166912720587396 0.2470851266919306 0.2715495652357693 0.2466921432420098 0.174399895094053 0.08072317123142106 -0.01719748796463094 -0.09150995366881144 -0.1121893362933034 -0.08631114197251731 -0.01202939671783369 0.0822246005851027 0.1845545634974284 0.2608417806486181 0.288010837101998 0.2608349277452632 0.1852173097792495 0.09394343527841177 -0.000522412442114596 -0.07716758231033678 -0.101314726943057 -0.07723048141156719 -0.00150606854408395 0.09480121553940711 0.1918902030253578 0.2667749896692267 0.2918543562969346 0.2663726364416665 0.19208088331978 0.09744085228740669 -0.001407338299224899 -0.07517730127368592 -0.1035336994229458 -0.07533504166512782 -0.0009396312664864799 0.09432110300943729 0.1909085973246785 0.2669551617753635 0.2914307560687457 0.267129952608651 0.1915671589772678 0.09511481070048546 -0.001821842687623114 -0.07696298672062996 -0.1065429653360892 -0.08154614317318044 -0.00695253847382782 0.08741198857882145 0.1865322033934279 0.2554121254393096 0.2835792210778317 0.2551215769006513 0.1814110585518511 0.08260201430873054 -0.01650212607183615 -0.09156737103804671 -0.1169491978174702 -0.09677020603883658 -0.02189786771906023 0.07536683794346875 0.1698475510398253 0.2410838274274259 0.2675349426535459 0.2386764305415689 0.1613945878904073 0.06813666931275493 -0.03481070657285007 -0.1106986640652692 -0.1379871259005482 -0.1144352857285732 -0.04092802774990199 0.0516678439175579 0.14484342213826 0.2230654577355959 0.2419761526527572 0.2177284129356809 0.1383658514839047 0.04017763341973528 -0.05875784025359822 -0.1373021533793663 -0.1625377978237263 -0.1422256086897054 -0.06685747463050014 0.02172979400150149 0.1221620823228474 0.1897579295259993 0.2194073838983417 0.1857162165674855 0.1115999296633183 0.01215777228031082 -0.08570312491088837 -0.1642395840376038 -0.1917373043807654 -0.1681797305598065 -0.0973341571630639 0.0003183780145137617 0.09651532056126368 0.1720725925113238 0.1966123280586901 0.1715846989733015 0.09690277280925767 0.002602900571714608 -0.09654723975970309 -0.1700496851616494 -0.1986409315281842 -0.170231535532864 -0.09602964282460814 -0.0005915546386375814 0.09583005574409814 0.1720379096879793 0.1963591664998599 0.1722042711760565 0.09650175055980434 0.000191501998924642 -0.09690314948058987 -0.1717790668746568 -0.1968593126997549 -0.171385808499066 -0.09708244461094576 -0.002450255672000401 0.09640986728075464 0.1701629131295385 0.1985344544022907 0.170315410926066 0.09595342527057446 0.0006538874181226009 -0.09589026069832859 -0.1719910166597996 -0.1964072707959197 -0.1721646461491338 -0.09653955294067154 -0.0001626294022078251 0.09687396453883644 0.1717995500981549 0.1968397618088101 0.1713998780417084 0.09706756792070068 0.002461902628036492 -0.09642073509914731 -0.1701559724303987 -0.1985417908798551 -0.1703119087480806 -0.09595657472303411 -0.0006525406382141907 0.09588848125558413 0.1719913150122322 0.1964065028708549 0.1721649684741881 0.09653955294067154 0.0001626294022078251 -0.09687396453883644 -0.1717995500981549 -0.1968397618088101 -0.1713998780417084 -0.09706756792070068 -0.002461902628036492 0.09642073509914731 0.1701559724303987 0.1985417908798551 0.1703119087480806 0.09595657472303411 0.0006525406382141907 -0.09588848125558413 -0.1719913150122322 -0.1964065028708549 -0.1721649684741881 -0.09653955294067154 -0.0001626294022078251 0.09687396453883644 0.1717995500981549 0.1968397618088101 0.1713998780417084 0.09706756792070068 0.002461902628036492 -0.09642073509914731 -0.1701559724303987 -0.1985417908798551 -0.1703119087480806 -0.09595657472303411 -0.0006525406382141907 0.09588848125558413 0.1719913150122322 0.1964065028708549 0.1721649684741881 0.09653955294067154 0.0001626294022078251 -0.09687396453883644 -0.1717995500981549 -0.1968397618088101 -0.1713998780417084 -0.09706756792070068 -0.002461902628036492 0.09642073509914731 0.1701559724303987 0.1985417908798551 0.1703119087480806 0.09595657472303411 0.0006525406382141907 -0.09588848125558413 -0.1719913150122322 -0.1964065028708549 -0.1721649684741881 -0.09653955294067154 -0.0001626294022078251 0.09687396453883644 0.1717995500981549 0.1968397618088101 0.1713998780417084 0.09706756792070068 0.002461902628036492 -0.09642073509914731 -0.1701559724303987 -0.1985417908798551 -0.1703119087480806 -0.09595657472303411 -0.0006525406382141907 0.09588848125558413 0.1719913150122322 0.1964065028708549 0.1721649684741881 0.09653955294067154 0.0001626294022078251 -0.09687396453883644 -0.1717995500981549 -0.1968397618088101 -0.1713998780417084 -0.09706756792070068 -0.002461902628036492 0.09642073509914731 0.1701559724303987 0.1985417908798551 0.1703119087480806 0.09595657472303411 0.0006525406382141907 -0.09588848125558413 -0.1719913150122322 -0.1964065028708549 -0.1721649684741881 -0.09653955294067154 -0.0001626294022078251 0.09687396453883644 0.1717995500981549 0.1968397618088101 0.1713998780417084 0.09706756792070068 0.002461902628036492 -0.09642073509914731 -0.1701559724303987 -0.1985417908798551 -0.1703119087480806 -0.09595657472303411 -0.0006525406382141907 0.09588848125558413 0.1719913150122322 0.1964065028708549 0.1721649684741881 0.09653955294067154 0.0001626294022078251 -0.09687396453883644 -0.1717995500981549 -0.1968397618088101 -0.1713998780417084 -0.09706756792070068 -0.002461902628036492 0.09642073509914731 0.1701559724303987 0.1985417908798551 0.1703119087480806 0.09595657472303411 0.0006525406382141907 -0.09588848125558413 -0.1719913150122322 -0.1964065028708549 -0.1721649684741881 -0.09653955294067154 -0.0001626294022078251 0.09687396453883644 0.1717995500981549 0.1968397618088101 0.1713998780417084 0.09706756792070068 0.002461902628036492 -0.09642073509914731 -0.1701559724303987 -0.1985417908798551 -0.1703119087480806 -0.09595657472303411 -0.0006525406382141907 0.09588848125558413 0.1719913150122322 0.1964065028708549 0.1721649684741881 0.09653955294067154 0.0001626294022078251 -0.09687396453883644 -0.1717995500981549 -0.1968397618088101 -0.1713998780417084 -0.09706756792070068 -0.002461902628036492 0.09642073509914731 0.1701559724303987 0.1985417908798551 0.1703119087480806 0.09595657472303411 0.0006525406382141907 -0.09588848125558413 -0.1719913150122322 -0.1964065028708549 -0.1721649684741881 -0.09653955294067154 -0.0001626294022078251 0.09687396453883644 0.1717995500981549 0.1968397618088101 0.1713998780417084 0.09706756792070068 0.002461902628036492 -0.09642073509914731 -0.1701559724303987 -0.1985417908798551 -0.1703119087480806 -0.09595657472303411 -0.0006525406382141907 0.09588848125558413 0.1719913150122322 0.1964065028708549 0.1721649684741881 0.09653955294067154 0.0001626294022078251 -0.09687396453883644 -0.1717995500981549 -0.1968397618088101 -0.1713998780417084 -0.09706756792070068 -0.002461902628036492 0.09642073509914731 0.1701559724303987 0.1985417908798551 0.1703119087480806 0.09595657472303411 0.0006525406382141907 -0.09588848125558413 -0.1719913150122322 -0.1964065028708549 -0.1721649684741881 -0.09653955294067154 -0.0001626294022078251 0.09687271377934371 0.1717997457816699 0.1968372006259549 0.171395577339687 0.09706561201737632 0.002456009339830183 -0.09642017123746979 -0.1701612029022264 -0.1985520309144403 -0.170313934027482 -0.09596734104223771 -0.0006496048851622409 0.09588046645839757 0.1719767157517969 0.1964040097709916 0.1721518844506718 0.09652039690858871 0.0001551462408464815 -0.09689490284986089 -0.1717986554490402 -0.1968573120588536 -0.1714225382980774 -0.09707737215393794 -0.002483911406362407 0.09642079802117043 0.170141072495093 0.1985089202543025 0.1703092391200401 0.09592435967747935 0.0006651356822008251 -0.0959156960769037 -0.1720109757792324 -0.1964332292431098 -0.1721438129553762 -0.09669591375224462 0.0005721853441021546 0.1106107215700344 0.1996202613139941 0.2384687244717788 0.2269393276810534 0.1665011183538341 0.08577381427417392 0.0008067733111159411 -0.05906395298453965 -0.07355239522095687 -0.03143866273002843 0.05682069281243993 0.1659995819128103 0.2764563023081663 0.366398357008908 0.4047654853064716 0.3943465231963604 0.3326760294075604 0.2501172001093743 0.1670540269179786 0.1059237853011379 0.0948845878960972 0.1340787243834353 0.2224583372598018 0.3307718946956454 0.4437571277202323 0.531129418259622 0.5737104863639749 0.558986298150252 0.4990246108802801 0.4169012159046887 0.3352126600882068 0.2595977104087028 0.219755533171013 0.2309381020543058 0.2921157176438907 0.3750195515421847 0.457836309798699 0.5191437157171155 0.5300670785819467 0.490931927599897 0.4025393703580093 0.2942018245017525 0.1812851647727209 0.0937909841524109 0.0513928125793077 0.06584488199516363 0.1262165960474298 0.2077171501250269 0.290281154638507 0.3525786895173055 0.3630141561036805 0.3249912758464796 0.2353597616008115 0.1252084501035453 0.01415873518144537 -0.07453122562702505 -0.113578539617267 -0.1019017614011674 -0.04161214858127453 0.03930863850757533 0.1240594595608244 0.1841762959629752 0.1983444020500716 0.1566170591842315 0.0678963860036533 -0.04063219550199024 -0.1519895138967633 -0.2286235596962425 -0.2375685600774913 -0.2003125702678361 -0.1100969020645044 -0.001104596573292912 0.09711892441591749 0.1716109061499833 0.1969618572013913 0.1712741002181424 0.09713928639169804 0.002394166462155668 -0.09637748294154613 -0.1702143413106168 -0.1985145952188039 -0.1703645435533522 -0.0959190224083583 -0.0006990856397655002 0.09591111705538062 0.1719529184428645 0.1964181739481067 0.1721466189733837 0.09654398348886373 0.0001452417643651319 -0.09687280160655572 -0.1718141563313627 -0.1968347990055138 -0.1714111542449299 -0.09706744259118454 -0.002463863642046002 0.09641897709081321 0.1701558646368622 0.1985370449867949 0.1703153717624586 0.0959500872926653 0.0006608677351017684 -0.09589432523794074 -0.171983370875878 -0.196411327006025 -0.1721607505555839 -0.09654913122402257 -0.0001566665123876613 0.09686241283081549 0.1718074692041473 0.1968284902489915 0.1714041310096246 0.09705711680264636 0.002467357521617853 -0.0964314730286879 -0.1701456811074212 -0.1985641296751065 -0.1702895608793512 -0.09599533568723491 -0.0005992902097134441 0.09579959818471903 0.1721412359429541 0.1960639140096287 0.1735436491529217 0.102015714877126 0.005352498394347251 -0.08619601054536172 -0.1623214268996916 -0.1814109727765852 -0.1572005228749081 -0.07730967781447004 0.01685367631485237 0.1201730980610671 0.1948546052046114 0.2260943760791317 0.2004867347885526 0.1273233427798454 0.03620120009911621 -0.06051101552544823 -0.1313611678943591 -0.15666284184498 -0.1268590176798255 -0.05197006781182926 0.04568746177337709 0.1469774695963697 0.2218194764986345 0.2517208440323583 0.2261907191684631 0.1561205344102286 0.06278479694548361 -0.03659395470170476 -0.1054421359207838 -0.1335233453857858 -0.1050854752137241 -0.02573041660397758 0.06895068240634948 0.166912720587396 0.2470851266919306 0.2715495652357693 0.2466921432420098 0.174399895094053 0.08072317123142106 -0.01719748796463094 -0.09150995366881144 -0.1121893362933034 -0.08631114197251731 -0.01202939671783369 0.0822246005851027 0.1845545634974284 0.2608417806486181 0.288010837101998 0.2608349277452632 0.1852173097792495 0.09394343527841177 -0.000522412442114596 -0.07716758231033678 -0.101314726943057 -0.07723048141156719 -0.00150606854408395 0.09480121553940711 0.1918902030253578 0.2667749896692267 0.2918543562969346 0.2663726364416665 0.19208088331978 0.09744085228740669 -0.001407338299224899 -0.07517730127368592 -0.1035336994229458 -0.07533504166512782 -0.0009396312664864799 0.09432110300943729 0.1909085973246785 0.2669551617753635 0.2914307560687457 0.267129952608651 0.1915671589772678 0.09511481070048546 -0.001821842687623114 -0.07696298672062996 -0.1065429653360892 -0.08154614317318044 -0.00695253847382782 0.08741198857882145 0.1865322033934279 0.2554121254393096 0.2835792210778317 0.2551215769006513 0.1814110585518511 0.08260201430873054 -0.01650212607183615 -0.09156737103804671 -0.1169491978174702 -0.09677020603883658 -0.02189786771906023 0.07536683794346875 0.1698475510398253 0.2410838274274259 0.2675349426535459 0.2386764305415689 0.1613945878904073 0.06813666931275493 -0.03481070657285007 -0.1106986640652692 -0.1379871259005482 -0.1144352857285732 -0.04092802774990199 0.0516678439175579 0.14484342213826 0.2230654577355959 0.2419761526527572 0.2177284129356809 0.1383658514839047 0.04017763341973528 -0.05875784025359822 -0.1373021533793663 -0.1625377978237263 -0.1422256086897054 -0.06685747463050014 0.02172979400150149 0.1221620823228474 0.1897579295259993 0.2194073838983417 0.1857162165674855 0.1115999296633183 0.01215777228031082 -0.08570312491088837 -0.1642395840376038 -0.1917373043807654 -0.1681797305598065 -0.0973341571630639 0.0003183780145137617 0.09651532056126368 0.1720725925113238 0.1966123280586901 0.1715846989733015 0.09690277280925767 0.002602900571714608 -0.09654723975970309 -0.1700496851616494 -0.1986409315281842 -0.170231535532864 -0.09602964282460814 -0.0005915546386375814 0.09583005574409814 0.1720379096879793 0.1963591664998599 0.1722042711760565 0.09650175055980434 0.000191501998924642 -0.09690314948058987 -0.1717790668746568 -0.1968593126997549 -0.171385808499066 -0.09708244461094576 -0.002450255672000401 0.09640986728075464 0.1701629131295385 0.1985344544022907 0.170315410926066 0.09595342527057446 0.0006538874181226009 -0.09589026069832859 -0.1719910166597996 -0.1964072707959197 -0.1721646461491338 -0.09653955294067154 -0.0001626294022078251 0.09687396453883644 0.1717995500981549 0.1968397618088101 0.1713998780417084 0.09706756792070068 0.002461902628036492 -0.09642073509914731 -0.1701559724303987 -0.1985417908798551 -0.1703119087480806 -0.09595657472303411 -0.0006525406382141907 0.09588848125558413 0.1719913150122322 0.1964065028708549 0.1721649684741881 0.09653955294067154 0.0001626294022078251 -0.09687396453883644 -0.1717995500981549 -0.1968397618088101 -0.1713998780417084 -0.09706756792070068 -0.002461902628036492 0.09642073509914731 0.1701559724303987 0.1985417908798551 0.1703119087480806 0.09595657472303411 0.0006525406382141907 -0.09588848125558413 -0.1719913150122322 -0.1964065028708549 -0.1721649684741881 -0.09653955294067154 -0.0001626294022078251 0.09687396453883644 0.1717995500981549 0.1968397618088101 0.1713998780417084 0.09706756792070068 0.002461902628036492 -0.09642073509914731 -0.1701559724303987 -0.1985417908798551 -0.1703119087480806 -0.09595657472303411 -0.0006525406382141907 0.09588848125558413 0.1719913150122322 0.1964065028708549 0.1721649684741881 0.09653955294067154 0.0001626294022078251 -0.09687396453883644 -0.1717995500981549 -0.1968397618088101 -0.1713998780417084 -0.09706756792070068 -0.002461902628036492 0.09642073509914731 0.1701559724303987 0.1985417908798551 0.1703119087480806 0.09595657472303411 0.0006525406382141907 -0.09588848125558413 -0.1719913150122322 -0.1964065028708549 -0.1721649684741881 -0.09653955294067154 -0.0001626294022078251 0.09687396453883644 0.1717995500981549 0.1968397618088101 0.1713998780417084 0.09706756792070068 0.002461902628036492 -0.09642073509914731 -0.1701559724303987 -0.1985417908798551 -0.1703119087480806 -0.09595657472303411 -0.0006525406382141907 0.09588848125558413 0.1719913150122322 0.1964065028708549 0.1721649684741881 0.09653955294067154 0.0001626294022078251 -0.09687396453883644 -0.1717995500981549 -0.1968397618088101 -0.1713998780417084 -0.09706756792070068 -0.002461902628036492 0.09642073509914731 0.1701559724303987 0.1985417908798551 0.1703119087480806 0.09595657472303411 0.0006525406382141907 -0.09588848125558413 -0.1719913150122322 -0.1964065028708549 -0.1721649684741881 -0.09653955294067154 -0.0001626294022078251 0.09687396453883644 0.1717995500981549 0.1968397618088101 0.1713998780417084 0.09706756792070068 0.002461902628036492 -0.09642073509914731 -0.1701559724303987 -0.1985417908798551 -0.1703119087480806 -0.09595657472303411 -0.0006525406382141907 0.09588848125558413 0.1719913150122322 0.1964065028708549 0.1721649684741881 0.09653955294067154 0.0001626294022078251 -0.09687396453883644 -0.1717995500981549 -0.1968397618088101 -0.1713998780417084 -0.09706756792070068 -0.002461902628036492 0.09642073509914731 0.1701559724303987 0.1985417908798551 0.1703119087480806 0.09595657472303411 0.0006525406382141907 -0.09588848125558413 -0.1719913150122322 -0.1964065028708549 -0.1721649684741881 -0.09653955294067154 -0.0001626294022078251 0.09687396453883644 0.1717995500981549 0.1968397618088101 0.1713998780417084 0.09706756792070068 0.002461902628036492 -0.09642073509914731 -0.1701559724303987 -0.1985417908798551 -0.1703119087480806 -0.09595657472303411 -0.0006525406382141907 0.09588848125558413 0.1719913150122322 0.1964065028708549 0.1721649684741881 0.09653955294067154 0.0001626294022078251 -0.09687396453883644 -0.1717995500981549 -0.1968397618088101 -0.1713998780417084 -0.09706756792070068 -0.002461902628036492 0.09642073509914731 0.1701559724303987 0.1985417908798551 0.1703119087480806 0.09595657472303411 0.0006525406382141907 -0.09588848125558413 -0.1719913150122322 -0.1964065028708549 -0.1721649684741881 -0.09653955294067154 -0.0001626294022078251 0.09687396453883644 0.1717995500981549 0.1968397618088101 0.1713998780417084 0.09706756792070068 0.002461902628036492 -0.09642073509914731 -0.1701559724303987 -0.1985417908798551 -0.1703119087480806 -0.09595657472303411 -0.0006525406382141907 0.09588848125558413 0.1719913150122322 0.1964065028708549 0.1721649684741881 0.09653955294067154 0.0001626294022078251 -0.09687396453883644 -0.1717995500981549 -0.1968397618088101 -0.1713998780417084 -0.09706756792070068 -0.002461902628036492 0.09642073509914731 0.1701559724303987 0.1985417908798551 0.1703119087480806 0.09595657472303411 0.0006525406382141907 -0.09588848125558413 -0.1719913150122322 -0.1964065028708549 -0.1721649684741881 -0.09653955294067154 -0.0001626294022078251 0.09687271377934371 0.1717997457816699 0.1968372006259549 0.171395577339687 0.09706561201737632 0.002456009339830183 -0.09642017123746979 -0.1701612029022264 -0.1985520309144403 -0.170313934027482 -0.09596734104223771 -0.0006496048851622409 0.09588046645839757 0.1719767157517969 0.1964040097709916 0.1721518844506718 0.09652039690858871 0.0001551462408464815 -0.09689490284986089 -0.1717986554490402 -0.1968573120588536 -0.1714225382980774 -0.09707737215393794 -0.002483911406362407 0.09642079802117043 0.170141072495093 0.1985089202543025 0.1703092391200401 0.09592435967747935 0.0006651356822008251 -0.0959156960769037 -0.1720109757792324 -0.1964332292431098 -0.1721438129553762 -0.09669591375224462 0.0005721853441021546 0.1106107215700344 0.1996202613139941 0.2384687244717788 0.2269393276810534 0.1665011183538341 0.08577381427417392 0.0008067733111159411 -0.05906395298453965 -0.07355239522095687 -0.03143866273002843 0.05682069281243993 0.1659995819128103 0.2764563023081663 0.366398357008908 0.4047654853064716 0.3943465231963604 0.3326760294075604 0.2501172001093743 0.1670540269179786 0.1059237853011379 0.0948845878960972 0.1340787243834353 0.2224583372598018 0.3307718946956454 0.4437571277202323 0.531129418259622 0.5737104863639749 0.558986298150252 0.4990246108802801 0.4169012159046887 0.3352126600882068 0.2595977104087028 0.219755533171013 0.2309381020543058 0.2921157176438907 0.3750195515421847 0.457836309798699 0.5191437157171155 0.5300670785819467 0.490931927599897 0.4025393703580093 0.2942018245017525 0.1812851647727209 0.0937909841524109 0.0513928125793077 0.06584488199516363 0.1262165960474298 0.2077171501250269 0.290281154638507 0.3525786895173055 0.3630141561036805 0.3249912758464796 0.2353597616008115 0.1252084501035453 0.01415873518144537 -0.07453122562702505 -0.113578539617267 -0.1019017614011674 -0.04161214858127453 0.03930863850757533 0.1240594595608244 0.1841762959629752 0.1983444020500716 0.1566170591842315 0.0678963860036533 -0.04063219550199024 -0.1519895138967633 -0.2286235596962425 -0.2375685600774913 -0.2003125702678361 -0.1100969020645044 -0.001104596573292912 0.09711892441591749 0.1716109061499833 0.1969618572013913 0.1712741002181424 0.09713928639169804 0.002394166462155668 -0.09637748294154613 -0.1702143413106168 -0.1985145952188039 -0.1703645435533522 -0.0959190224083583 -0.0006990856397655002 0.09591111705538062 0.1719529184428645 0.1964181739481067 0.1721466189733837 0.09654398348886373 0.0001452417643651319 -0.09687280160655572 -0.1718141563313627 -0.1968347990055138 -0.1714111542449299 -0.09706744259118454 -0.002463863642046002 0.09641897709081321 0.1701558646368622 0.1985370449867949 0.1703153717624586 0.0959500872926653 0.0006608677351017684 -0.09589432523794074 -0.171983370875878 -0.196411327006025 -0.1721607505555839 -0.09654913122402257 -0.0001566665123876613 0.09686241283081549 0.1718074692041473 0.1968284902489915 0.1714041310096246 0.09705711680264636 0.002467357521617853 -0.0964314730286879 -0.1701456811074212 -0.1985641296751065 -0.1702895608793512 -0.09599533568723491 -0.0005992902097134441 0.09579959818471903 0.1721412359429541 0.1960639140096287 0.1735436491529217 0.102015714877126 0.005352498394347251 -0.08619601054536172 -0.1623214268996916 -0.1814109727765852 -0.1572005228749081 -0.07730967781447004 0.01685367631485237 0.1201730980610671 0.1948546052046114 0.2260943760791317 0.2004867347885526 0.1273233427798454 0.03620120009911621 -0.06051101552544823 -0.1313611678943591 -0.15666284184498 -0.1268590176798255 -0.05197006781182926 0.04568746177337709 0.1469774695963697 0.2218194764986345 0.2517208440323583 0.2261907191684631 0.1561205344102286 0.06278479694548361 -0.03659395470170476 -0.1054421359207838 -0.1335233453857858 -0.1050854752137241 -0.02573041660397758 0.06895068240634948 0.166912720587396 0.2470851266919306 0.2715495652357693 0.2466921432420098 0.174399895094053 0.08072317123142106 -0.01719748796463094 -0.09150995366881144 -0.1121893362933034 -0.08631114197251731 -0.01202939671783369 0.0822246005851027 0.1845545634974284 0.2608417806486181 0.288010837101998 0.2608349277452632 0.1852173097792495 0.09394343527841177 -0.000522412442114596 -0.07716758231033678 -0.101314726943057 -0.07723048141156719 -0.00150606854408395 0.09480121553940711 0.1918902030253578 0.2667749896692267 0.2918543562969346 0.2663726364416665 0.19208088331978 0.09744085228740669 -0.001407338299224899 -0.07517730127368592 -0.1035336994229458 -0.07533504166512782 -0.0009396312664864799 0.09432110300943729 0.1909085973246785 0.2669551617753635 0.2914307560687457 0.267129952608651 0.1915671589772678 0.09511481070048546 -0.001821842687623114 -0.07696298672062996 -0.1065429653360892 -0.08154614317318044 -0.00695253847382782 0.08741198857882145 0.1865322033934279 0.2554121254393096 0.2835792210778317 0.2551215769006513 0.1814110585518511 0.08260201430873054 -0.01650212607183615 -0.09156737103804671 -0.1169491978174702 -0.09677020603883658 -0.02189786771906023 0.07536683794346875 0.1698475510398253 0.2410838274274259 0.2675349426535459 0.2386764305415689 0.1613945878904073 0.06813666931275493 -0.03481070657285007 -0.1106986640652692 -0.1379871259005482 -0.1144352857285732 -0.04092802774990199 0.0516678439175579 0.14484342213826 0.2230654577355959 0.2419761526527572 0.2177284129356809 0.1383658514839047 0.04017763341973528 -0.05875784025359822 -0.1373021533793663 -0.1625377978237263 -0.1422256086897054 -0.06685747463050014 0.02172979400150149 0.1221620823228474 0.1897579295259993 0.2194073838983417 0.1857162165674855 0.1115999296633183 0.01215777228031082 -0.08570312491088837 -0.1642395840376038 -0.1917373043807654 -0.1681797305598065 -0.0973341571630639 0.0003183780145137617 0.09651532056126368 0.1720725925113238 0.1966123280586901 0.1715846989733015 0.09690277280925767 0.002602900571714608 -0.09654723975970309 -0.1700496851616494 -0.1986409315281842 -0.170231535532864 -0.09602964282460814 -0.0005915546386375814 0.09583005574409814 0.1720379096879793 0.1963591664998599 0.1722042711760565 0.09650175055980434 0.000191501998924642 -0.09690314948058987 -0.1717790668746568 -0.1968593126997549 -0.171385808499066 -0.09708244461094576 -0.002450255672000401 0.09640986728075464 0.1701629131295385 0.1985344544022907 0.170315410926066 0.09595342527057446 0.0006538874181226009 -0.09589026069832859 -0.1719910166597996 -0.1964072707959197 -0.1721646461491338 -0.09653955294067154 -0.0001626294022078251 0.09687396453883644 0.1717995500981549 0.1968397618088101 0.1713998780417084 0.09706756792070068 0.002461902628036492 -0.09642073509914731 -0.1701559724303987 -0.1985417908798551 -0.1703119087480806 -0.09595657472303411 -0.0006525406382141907 0.09588848125558413 0.1719913150122322 0.1964065028708549 0.1721649684741881 0.09653955294067154 0.0001626294022078251 -0.09687396453883644 -0.1717995500981549 -0.1968397618088101 -0.1713998780417084 -0.09706756792070068 -0.002461902628036492 0.09642073509914731 0.1701559724303987 0.1985417908798551 0.1703119087480806 0.09595657472303411 0.0006525406382141907 -0.09588848125558413 -0.1719913150122322 -0.1964065028708549 -0.1721649684741881 -0.09653955294067154 -0.0001626294022078251 0.09687396453883644 0.1717995500981549 0.1968397618088101 0.1713998780417084 0.09706756792070068 0.002461902628036492 -0.09642073509914731 -0.1701559724303987 -0.1985417908798551 -0.1703119087480806 -0.09595657472303411 -0.0006516610695122591 0.09588720512027846 0.1719930772938948 0.1964041532698545 0.1721680189576543 0.09653567478015165 0.0001674761691144771 -0.09687993596509933 -0.1717922817301225 -0.196848516894315 -0.1713894274940638 -0.097079943401951 -0.002447349882723541 0.09640372727228042 0.1701757419285487 0.1985189201898508 0.1703382584066128 0.09592632316819903 0.00068629162685726 -0.09592675792330527 -0.1719479768188522 -0.1964555308708834 -0.1721095005140648 -0.09660237470767483 -9.131561803095782e-05 0.09679270587576121 0.171892659747835 0.1967322208663878 0.1715254738560661 0.09691859678448478 0.002642513955984169 -0.09664682614127276 -0.1698586171645427 -0.1989671564790207 -0.1695892398615199 -0.0981244983713936 -0.00306783398513668 0.09669620049445837 0.1714923327539234 0.1967764767801371 0.1718640575740042 0.09679913394868389 -7.119418379028086e-05 -0.09665576862424177 -0.172009663428403 -0.1966312649149272 -0.1716131862199386 -0.09684202693074118 -0.002709565900834545 0.09670565050812342 0.1698069715316252 0.1990124932519114 0.1695494777718112 0.09815931490001774 0.003037416827290034 -0.09666970320816208 -0.1715153350737323 -0.1967565899885855 -0.171881169776909 -0.09678448851399618 5.873661703732637e-05 0.09666629161875347 0.1720008446641041 0.1966385889868444 0.1716071663358981 0.09684691558356856 0.002705651799207524 -0.09670256944306957 -0.1698093469022568 -0.1990107094998168 -0.1695507715584066 -0.09815842105030982 -0.003037416827290034 0.09666970320816208 0.1715153350737323 0.1967565899885855 0.171881169776909 0.09678448851399618 -5.873661703732637e-05 -0.09666629161875347 -0.1720008446641041 -0.1966385889868444 -0.1716071663358981 -0.09684691558356856 -0.002705651799207524 0.09670256944306957 0.1698093469022568 0.1990107094998168 0.1695507715584066 0.09815842105030982 0.003037416827290034 -0.09666970320816208 -0.1715153350737323 -0.1967565899885855 -0.171881169776909 -0.09678448851399618 5.873661703732637e-05 0.09666629161875347 0.1720008446641041 0.1966385889868444 0.1716071663358981 0.09684691558356856 0.002705651799207524 -0.09670256944306957 -0.1698093469022568 -0.1990107094998168 -0.1695507715584066 -0.09815842105030982 -0.003037416827290034 0.09666970320816208 0.1715153350737323 0.1967565899885855 0.171881169776909 0.09678448851399618 -5.873661703732637e-05 -0.09666629161875347 -0.1720008446641041 -0.1966385889868444 -0.1716071663358981 -0.09684691558356856 -0.002705651799207524 0.09670256944306957 0.1698093469022568 0.1990107094998168 0.1695507715584066 0.09815842105030982 0.003037416827290034 -0.09666970320816208 -0.1715153350737323 -0.1967565899885855 -0.171881169776909 -0.09678448851399618 5.873661703732637e-05 0.09666629161875347 0.1720008446641041 0.1966385889868444 0.1716071663358981 0.09684691558356856 0.002705651799207524 -0.09670256944306957 -0.1698093469022568 -0.1990107094998168 -0.1695507715584066 -0.09815842105030982 -0.003037416827290034 0.09666970320816208 0.1715153350737323 0.1967565899885855 0.171881169776909 0.09678448851399618 -5.873661703732637e-05 -0.09666629161875347 -0.1720008446641041 -0.1966385889868444 -0.1716071663358981 -0.09684691558356856 -0.002705651799207524 0.09670256944306957 0.1698093469022568 0.1990107094998168 0.1695507715584066 0.09815842105030982 0.003037416827290034 -0.09666970320816208 -0.1715153350737323 -0.1967565899885855 -0.171881169776909 -0.09678448851399618 5.873661703732637e-05 0.09666504085926074 0.172001040347619 0.1966360278039892 0.1716028656338767 0.09684495968024417 0.002699758511001214 -0.09670200558139205 -0.1698145773740845 -0.199020949534402 -0.1695527968378081 -0.09816918736951342 -0.003034481074238085 0.09666168841097554 0.171500735813297 0.1967540968887222 0.1718680857533927 0.09676533248191332 -6.621977839866991e-05 -0.09668722992977792 -0.1719999500149894 -0.1966561392368879 -0.1716298265922671 -0.09685671981680583 -0.002727660577533435 0.09670263236509269 0.1697944469669511 0.1989778388742642 0.1695481019303662 0.09812620600475506 0.003050011871276669 -0.09669691802948165 -0.1715349958407324 -0.1967833163608404 -0.1718600142580971 -0.09694084932556923 0.000793551363347306 0.1104030486499515 0.1998215558799432 0.2382675516498131 0.2271466159752431 0.1662804660167019 0.08601756344534495 0.0005249389671936898 -0.0587173274563977 -0.07402131384091862 -0.03067752554035444 0.05461884648516422 0.1636147057237345 0.2772375242607443 0.3659223770704081 0.4051155724242022 0.3940627244990813 0.332920964980885 0.2498958340901292 0.1672616998380616 0.1057224907351888 0.09508576071806293 0.1338714360892457 0.2226789895969339 0.3305281455244744 0.4440389620641546 0.53078279273148 0.5741794049839366 0.5582251609605779 0.5012264572075557 0.4192860920937646 0.3344314381356288 0.2600736903472028 0.2194054460532824 0.2312219007515849 0.291870782070566 0.3752409175614298 0.4576286368786161 0.5193450102830646 0.529865905759981 0.4911392158940865 0.4023187180208772 0.2944455736729235 0.1810033304287986 0.09413760968055286 0.05092389395934599 0.06660601918483762 0.124014749720154 0.205332273935951 0.2910623765910849 0.3521027095788056 0.363364243221411 0.3247074771492006 0.2356046971741362 0.1249870840843002 0.01436640810152834 -0.07473252019297419 -0.1133773667953013 -0.1021090496953571 -0.0413914962441424 0.03906488933640429 0.1243412939047466 0.1838296704348333 0.1988133206700333 0.1558559219945575 0.070098232330929 -0.0382473193129144 -0.1527707358493413 -0.2281475797577427 -0.237918647195222 -0.2000287715705571 -0.110341837637829 -0.0008832305540477615 0.09691125149583452 0.1718122007159325 0.1967606843794255 0.1714813885123321 0.09691863405456592 0.002637915633326699 -0.09665931728546841 -0.1698677157824748 -0.1989835138387656 -0.1696034063636782 -0.09812086873563401 -0.003083961828841345 0.09669233900795858 0.1714769385043646 0.1967682610658373 0.1718628202761046 0.09678891906218835 -7.612425488001975e-05 -0.09666512868647278 -0.1720154508973119 -0.1966336261835481 -0.1716184425391196 -0.09684679025405238 -0.002707612813217033 0.09670081143473547 0.1698092391087203 0.1990059636067566 0.1695542345727846 0.09815193361994101 0.003045743924177613 -0.09667554719051868 -0.171507390937378 -0.1967614141237556 -0.1718769518583047 -0.09679406679734719 6.469950685749183e-05 0.09665473991073252 0.1720087637700965 0.1966273174270258 0.1716114193038143 0.09683646446551425 0.002711106692788884 -0.09671330737261016 -0.1697990555792793 -0.1990330482950682 -0.1695284236896773 -0.09819718201451062 -0.002984166398789288 0.096580820137297 0.1716652560044542 0.1964140011273594 0.1732598504556427 0.1022606504504506 0.005131132375102101 -0.08598833762527876 -0.1625227214656408 -0.1812097999546194 -0.1574078111690978 -0.07708902547733792 0.01660992714368134 0.1204549324049893 0.1945079796764695 0.2265632946990934 0.1997255975988787 0.1295251891071211 0.03858607628819206 -0.06129223747802618 -0.1308851879558592 -0.1570129289627106 -0.1265752189825465 -0.05221500338515389 0.04590882779262224 0.1467697966762867 0.2220207710645836 0.2515196712103926 0.2263980074626527 0.1558998820730965 0.06302854611665464 -0.03687578904562701 -0.1050955103926419 -0.1339922640057475 -0.1043243380240501 -0.02793226293125329 0.06656580621727366 0.167693942539974 0.2466091467534307 0.2718996523535001 0.2464083445447307 0.1746448306673776 0.0805018052121759 -0.01698981504454797 -0.0917112482347606 -0.1119881634713376 -0.08651843026670701 -0.01180874438070155 0.08198085141393166 0.1848363978413506 0.2604951551204761 0.2884797557219597 0.2600737905555893 0.1874191561065252 0.09632831146748762 -0.001303634394692544 -0.07669160237183685 -0.1016648140607876 -0.0769466827142881 -0.001751004117408568 0.09502258155865223 0.1916825301052749 0.2669762842351758 0.2916531834749688 0.2665799247358562 0.1918602309826479 0.0976846014585777 -0.001689172643147152 -0.07483067574554396 -0.1040026180429075 -0.07457390447545383 -0.00314147759376219 0.09193622682036143 0.1916898192772565 0.2664791818368637 0.2917808431864762 0.266846153911372 0.1918120945505924 0.09489344468124031 -0.001614169767540145 -0.07716428128657911 -0.1063417925141235 -0.08175343146737012 -0.006731886136695692 0.08716823940765042 0.1868140377373501 0.2550654999111676 0.2840481396977934 0.2543604397109774 0.1836129048791268 0.0849868904978064 -0.0172833480244141 -0.0910913910995468 -0.1172992849352008 -0.09648640734155749 -0.02214280329238486 0.0755882039627139 0.1696398781197423 0.2412851219933751 0.2673337698315802 0.2388837188357586 0.1611739355532752 0.06838041848392598 -0.03509254091677232 -0.1103520385371273 -0.1384560445205099 -0.1136741485388992 -0.04312987407717771 0.04928296772848206 0.145624644090838 0.2225894777970959 0.2423262397704877 0.2174446142384018 0.1386107870572293 0.03995626740049012 -0.05855016733351526 -0.1375034479453154 -0.1623366250017606 -0.1424328969838951 -0.06663682229336799 0.02148604483033046 0.1224439166667697 0.1894113039978573 0.2198763025183035 0.1849550793778116 0.1138017759905941 0.01454264846938667 -0.08648434686346633 -0.1637636040991039 -0.192087391498496 -0.1678959318625274 -0.09757909273638853 0.0005397440337589126 0.0963076476411807 0.1722738870772729 0.1964111552367243 0.1717919872674913 0.09668212047212556 0.00284664974288564 -0.09682907410362533 -0.1697030596335074 -0.1991098501481459 -0.1694703983431901 -0.09823148915188386 -0.002976430827713426 0.09661127769667609 0.1715619297494794 0.1967092536175905 0.1719204724787775 0.09674668613312898 -2.986402032050951e-05 -0.09669547656050689 -0.1719803614406059 -0.1966581398777892 -0.1715930967932557 -0.09686179227381364 -0.002694004843171432 0.0966917016246769 0.1698162876013966 0.1990033730222524 0.169554273736392 0.09815527159785017 0.003038763607198445 -0.09667148265090654 -0.1715150367212997 -0.1967573579136503 -0.1718808474518547 -0.09678448851399618 5.873661703732637e-05 0.09666629161875347 0.1720008446641041 0.1966385889868444 0.1716071663358981 0.09684691558356856 0.002705651799207524 -0.09670256944306957 -0.1698093469022568 -0.1990107094998168 -0.1695507715584066 -0.09815842105030982 -0.003037416827290034 0.09666970320816208 0.1715153350737323 0.1967565899885855 0.171881169776909 0.09678448851399618 -5.873661703732637e-05 -0.09666629161875347 -0.1720008446641041 -0.1966385889868444 -0.1716071663358981 -0.09684691558356856 -0.002705651799207524 0.09670256944306957 0.1698093469022568 0.1990107094998168 0.1695507715584066 0.09815842105030982 0.003037416827290034 -0.09666970320816208 -0.1715153350737323 -0.1967565899885855 -0.171881169776909 -0.09678448851399618 5.873661703732637e-05 0.09666629161875347 0.1720008446641041 0.1966385889868444 0.1716071663358981 0.09684691558356856 0.002705651799207524 -0.09670256944306957 -0.1698093469022568 -0.1990107094998168 -0.1695507715584066 -0.09815842105030982 -0.003037416827290034 0.09666970320816208 0.1715153350737323 0.1967565899885855 0.171881169776909 0.09678448851399618 -5.873661703732637e-05 -0.09666629161875347 -0.1720008446641041 -0.1966385889868444 -0.1716071663358981 -0.09684691558356856 -0.002705651799207524 0.09670256944306957 0.1698093469022568 0.1990107094998168 0.1695507715584066 0.09815842105030982 0.003037416827290034 -0.09666970320816208 -0.1715153350737323 -0.1967565899885855 -0.171881169776909 -0.09678448851399618 5.873661703732637e-05 0.09666629161875347 0.1720008446641041 0.1966385889868444 0.1716071663358981 0.09684691558356856 0.002705651799207524 -0.09670256944306957 -0.1698093469022568 -0.1990107094998168 -0.1695507715584066 -0.09815842105030982 -0.003037416827290034 0.09666970320816208 0.1715153350737323 0.1967565899885855 0.171881169776909 0.09678448851399618 -5.873661703732637e-05 -0.09666629161875347 -0.1720008446641041 -0.1966385889868444 -0.1716071663358981 -0.09684691558356856 -0.002705651799207524 0.09670256944306957 0.1698093469022568 0.1990107094998168 0.1695507715584066 0.09815842105030982 0.003037416827290034 -0.09666970320816208 -0.1715153350737323 -0.1967565899885855 -0.171881169776909 -0.09678448851399618 5.873661703732637e-05 0.09666629161875347 0.1720008446641041 0.1966385889868444 0.1716071663358981 0.09684691558356856 0.002705651799207524 -0.09670256944306957 -0.1698093469022568 -0.1990107094998168 -0.1695507715584066 -0.09815842105030982 -0.003037416827290034 0.09666970320816208 0.1715153350737323 0.1967565899885855 0.171881169776909 0.09678448851399618 -5.873661703732637e-05 -0.09666629161875347 -0.1720008446641041 -0.1966385889868444 -0.1716071663358981 -0.09684691558356856 -0.002705651799207524 0.09670256944306957 0.1698093469022568 0.1990107094998168 0.1695507715584066 0.09815842105030982 0.003037416827290034 -0.09666970320816208 -0.1715153350737323 -0.1967565899885855 -0.171881169776909 -0.09678448851399618 5.873661703732637e-05 0.09666629161875347 0.1720008446641041 0.1966385889868444 0.1716071663358981 0.09684691558356856 0.002705651799207524 -0.09670256944306957 -0.1698093469022568 -0.1990107094998168 -0.1695507715584066 -0.09815842105030982 -0.003037416827290034 0.09666970320816208 0.1715153350737323 0.1967565899885855 0.171881169776909 0.09678448851399618 -5.873661703732637e-05 -0.09666629161875347 -0.1720008446641041 -0.1966385889868444 -0.1716071663358981 -0.09684691558356856 -0.002705651799207524 0.09670256944306957 0.1698093469022568 0.1990107094998168 0.1695507715584066 0.09815842105030982 0.003037416827290034 -0.09666970320816208 -0.1715153350737323 -0.1967565899885855 -0.171881169776909 -0.09678448851399618 5.873661703732637e-05 0.09666629161875347 0.1720008446641041 0.1966385889868444 0.1716071663358981 0.09684691558356856 0.002705651799207524 -0.09670256944306957 -0.1698093469022568 -0.1990107094998168 -0.1695507715584066 -0.09815842105030982 -0.003037416827290034 0.09666970320816208 0.1715153350737323 0.1967565899885855 0.171881169776909 0.09678448851399618 -5.873661703732637e-05 -0.09666629161875347 -0.1720008446641041 -0.1966385889868444 -0.1716071663358981 -0.09684691558356856 -0.002705651799207524 0.09670256944306957 0.1698093469022568 0.1990107094998168 0.1695507715584066 0.09815842105030982 0.003037416827290034 -0.09666970320816208 -0.1715153350737323 -0.1967565899885855 -0.171881169776909 -0.09678448851399618 5.873661703732637e-05 0.09666504085926074 0.172001040347619 0.1966360278039892 0.1716028656338767 0.09684495968024417 0.002699758511001214 -0.09670200558139205 -0.1698145773740845 -0.199020949534402 -0.1695527968378081 -0.09816918736951342 -0.003034481074238085 0.09666168841097554 0.171500735813297 0.1967540968887222 0.1718680857533927 0.09676533248191332 -6.621977839866991e-05 -0.09668722992977792 -0.1719999500149894 -0.1966561392368879 -0.1716298265922671 -0.09685671981680583 -0.002727660577533435 0.09670263236509269 0.1697944469669511 0.1989778388742642 0.1695481019303662 0.09812620600475506 0.003050011871276669 -0.09669691802948165 -0.1715349958407324 -0.1967833163608404 -0.1718600142580971 -0.09694084932556923 0.000793551363347306 0.1104030486499515 0.1998215558799432 0.2382675516498131 0.2271466159752431 0.1662804660167019 0.08601756344534495 0.0005249389671936898 -0.0587173274563977 -0.07402131384091862 -0.03067752554035444 0.05461884648516422 0.1636147057237345 0.2772375242607443 0.3659223770704081 0.4051155724242022 0.3940627244990813 0.332920964980885 0.2498958340901292 0.1672616998380616 0.1057224907351888 0.09508576071806293 0.1338714360892457 0.2226789895969339 0.3305281455244744 0.4440389620641546 0.53078279273148 0.5741794049839366 0.5582251609605779 0.5012264572075557 0.4192860920937646 0.3344314381356288 0.2600736903472028 0.2194054460532824 0.2312219007515849 0.291870782070566 0.3752409175614298 0.4576286368786161 0.5193450102830646 0.529865905759981 0.4911392158940865 0.4023187180208772 0.2944455736729235 0.1810033304287986 0.09413760968055286 0.05092389395934599 0.06660601918483762 0.124014749720154 0.205332273935951 0.2910623765910849 0.3521027095788056 0.363364243221411 0.3247074771492006 0.2356046971741362 0.1249870840843002 0.01436640810152834 -0.07473252019297419 -0.1133773667953013 -0.1021090496953571 -0.0413914962441424 0.03906488933640429 0.1243412939047466 0.1838296704348333 0.1988133206700333 0.1558559219945575 0.070098232330929 -0.0382473193129144 -0.1527707358493413 -0.2281475797577427 -0.237918647195222 -0.2000287715705571 -0.110341837637829 -0.0008832305540477615 0.09691125149583452 0.1718122007159325 0.1967606843794255 0.1714813885123321 0.09691863405456592 0.002637915633326699 -0.09665931728546841 -0.1698677157824748 -0.1989835138387656 -0.1696034063636782 -0.09812086873563401 -0.003083961828841345 0.09669233900795858 0.1714769385043646 0.1967682610658373 0.1718628202761046 0.09678891906218835 -7.612425488001975e-05 -0.09666512868647278 -0.1720154508973119 -0.1966336261835481 -0.1716184425391196 -0.09684679025405238 -0.002707612813217033 0.09670081143473547 0.1698092391087203 0.1990059636067566 0.1695542345727846 0.09815193361994101 0.003045743924177613 -0.09667554719051868 -0.171507390937378 -0.1967614141237556 -0.1718769518583047 -0.09679406679734719 6.469950685749183e-05 0.09665473991073252 0.1720087637700965 0.1966273174270258 0.1716114193038143 0.09683646446551425 0.002711106692788884 -0.09671330737261016 -0.1697990555792793 -0.1990330482950682 -0.1695284236896773 -0.09819718201451062 -0.002984166398789288 0.096580820137297 0.1716652560044542 0.1964140011273594 0.1732598504556427 0.1022606504504506 0.005131132375102101 -0.08598833762527876 -0.1625227214656408 -0.1812097999546194 -0.1574078111690978 -0.07708902547733792 0.01660992714368134 0.1204549324049893 0.1945079796764695 0.2265632946990934 0.1997255975988787 0.1295251891071211 0.03858607628819206 -0.06129223747802618 -0.1308851879558592 -0.1570129289627106 -0.1265752189825465 -0.05221500338515389 0.04590882779262224 0.1467697966762867 0.2220207710645836 0.2515196712103926 0.2263980074626527 0.1558998820730965 0.06302854611665464 -0.03687578904562701 -0.1050955103926419 -0.1339922640057475 -0.1043243380240501 -0.02793226293125329 0.06656580621727366 0.167693942539974 0.2466091467534307 0.2718996523535001 0.2464083445447307 0.1746448306673776 0.0805018052121759 -0.01698981504454797 -0.0917112482347606 -0.1119881634713376 -0.08651843026670701 -0.01180874438070155 0.08198085141393166 0.1848363978413506 0.2604951551204761 0.2884797557219597 0.2600737905555893 0.1874191561065252 0.09632831146748762 -0.001303634394692544 -0.07669160237183685 -0.1016648140607876 -0.0769466827142881 -0.001751004117408568 0.09502258155865223 0.1916825301052749 0.2669762842351758 0.2916531834749688 0.2665799247358562 0.1918602309826479 0.0976846014585777 -0.001689172643147152 -0.07483067574554396 -0.1040026180429075 -0.07457390447545383 -0.00314147759376219 0.09193622682036143 0.1916898192772565 0.2664791818368637 0.2917808431864762 0.266846153911372 0.1918120945505924 0.09489344468124031 -0.001614169767540145 -0.07716428128657911 -0.1063417925141235 -0.08175343146737012 -0.006731886136695692 0.08716823940765042 0.1868140377373501 0.2550654999111676 0.2840481396977934 0.2543604397109774 0.1836129048791268 0.0849868904978064 -0.0172833480244141 -0.0910913910995468 -0.1172992849352008 -0.09648640734155749 -0.02214280329238486 0.0755882039627139 0.1696398781197423 0.2412851219933751 0.2673337698315802 0.2388837188357586 0.1611739355532752 0.06838041848392598 -0.03509254091677232 -0.1103520385371273 -0.1384560445205099 -0.1136741485388992 -0.04312987407717771 0.04928296772848206 0.145624644090838 0.2225894777970959 0.2423262397704877 0.2174446142384018 0.1386107870572293 0.03995626740049012 -0.05855016733351526 -0.1375034479453154 -0.1623366250017606 -0.1424328969838951 -0.06663682229336799 0.02148604483033046 0.1224439166667697 0.1894113039978573 0.2198763025183035 0.1849550793778116 0.1138017759905941 0.01454264846938667 -0.08648434686346633 -0.1637636040991039 -0.192087391498496 -0.1678959318625274 -0.09757909273638853 0.0005397440337589126 0.0963076476411807 0.1722738870772729 0.1964111552367243 0.1717919872674913 0.09668212047212556 0.00284664974288564 -0.09682907410362533 -0.1697030596335074 -0.1991098501481459 -0.1694703983431901 -0.09823148915188386 -0.002976430827713426 0.09661127769667609 0.1715619297494794 0.1967092536175905 0.1719204724787775 0.09674668613312898 -2.986402032050951e-05 -0.09669547656050689 -0.1719803614406059 -0.1966581398777892 -0.1715930967932557 -0.09686179227381364 -0.002694004843171432 0.0966917016246769 0.1698162876013966 0.1990033730222524 0.169554273736392 0.09815527159785017 0.003038763607198445 -0.09667148265090654 -0.1715150367212997 -0.1967573579136503 -0.1718808474518547 -0.09678448851399618 5.873661703732637e-05 0.09666629161875347 0.1720008446641041 0.1966385889868444 0.1716071663358981 0.09684691558356856 0.002705651799207524 -0.09670256944306957 -0.1698093469022568 -0.1990107094998168 -0.1695507715584066 -0.09815842105030982 -0.003037416827290034 0.09666970320816208 0.1715153350737323 0.1967565899885855 0.171881169776909 0.09678448851399618 -5.873661703732637e-05 -0.09666629161875347 -0.1720008446641041 -0.1966385889868444 -0.1716071663358981 -0.09684691558356856 -0.002705651799207524 0.09670256944306957 0.1698093469022568 0.1990107094998168 0.1695507715584066 0.09815842105030982 0.003037416827290034 -0.09666970320816208 -0.1715153350737323 -0.1967565899885855 -0.171881169776909 -0.09678448851399618 5.873661703732637e-05 0.09666629161875347 0.1720008446641041 0.1966385889868444 0.1716071663358981 0.09684691558356856 0.002705651799207524 -0.09670256944306957 -0.1698093469022568 -0.1990107094998168 -0.1695507715584066 -0.09815842105030982 -0.003037416827290034 0.09666970320816208 0.1715153350737323 0.1967565899885855 0.171881169776909 0.09678448851399618 -5.873661703732637e-05 -0.09666629161875347 -0.1720008446641041 -0.1966385889868444 -0.1716071663358981 -0.09684691558356856 -0.002705651799207524 0.09670256944306957 0.1698093469022568 0.1990107094998168 0.1695507715584066 0.09815842105030982 0.003037416827290034 -0.09666970320816208 -0.1715153350737323 -0.1967565899885855 -0.171881169776909 -0.09678448851399618 5.873661703732637e-05 0.09666629161875347 0.1720008446641041 0.1966385889868444 0.1716071663358981 0.09684691558356856 0.002705651799207524 -0.09670256944306957 -0.1698093469022568 -0.1990107094998168 -0.1695507715584066 -0.09815842105030982 -0.003037416827290034 0.09666970320816208 0.1715153350737323 0.1967565899885855 0.171881169776909 0.09678448851399618 -5.873661703732637e-05 -0.09666629161875347 -0.1720008446641041 -0.1966385889868444 -0.1716071663358981 -0.09684691558356856 -0.002705651799207524 0.09670256944306957 0.1698093469022568 0.1990107094998168 0.1695507715584066 0.09815842105030982 0.003037416827290034 -0.09666970320816208 -0.1715153350737323 -0.1967565899885855 -0.171881169776909 -0.09678448851399618 5.873661703732637e-05 0.09666629161875347 0.1720008446641041 0.1966385889868444 0.1716071663358981 0.09684691558356856 0.002705651799207524 -0.09670256944306957 -0.1698093469022568 -0.1990107094998168 -0.1695507715584066 -0.09815842105030982 -0.003037416827290034 0.09666970320816208 0.1715153350737323 0.1967565899885855 0.171881169776909 0.09678448851399618 -5.873661703732637e-05 -0.09666629161875347 -0.1720008446641041 -0.1966385889868444 -0.1716071663358981 -0.09684691558356856 -0.002705651799207524 0.09670256944306957 0.1698093469022568 0.1990107094998168 0.1695507715584066 0.09815842105030982 0.003037416827290034 -0.09666970320816208 -0.1715153350737323 -0.1967565899885855 -0.171881169776909 -0.09678448851399618 5.873661703732637e-05 0.09666629161875347 0.1720008446641041 0.1966385889868444 0.1716071663358981 0.09684691558356856 0.002705651799207524 -0.09670256944306957 -0.1698093469022568 -0.1990107094998168 -0.1695507715584066 -0.09815842105030982 -0.003037416827290034 0.09666970320816208 0.1715153350737323 0.1967565899885855 0.171881169776909 0.09678448851399618 -5.873661703732637e-05 -0.09666629161875347 -0.1720008446641041 -0.1966385889868444 -0.1716071663358981 -0.09684691558356856 -0.002705651799207524 0.09670256944306957 0.1698093469022568 0.1990107094998168 0.1695507715584066 0.09815842105030982 0.003037416827290034 -0.09666970320816208 -0.1715153350737323 -0.1967565899885855 -0.171881169776909 -0.09678448851399618 5.873661703732637e-05 0.09666629161875347 0.1720008446641041 0.1966385889868444 0.1716071663358981 0.09684691558356856 0.002705651799207524 -0.09670256944306957 -0.1698093469022568 -0.1990107094998168 -0.1695507715584066 -0.09815842105030982 -0.003037416827290034 0.09666970320816208 0.1715153350737323 0.1967565899885855 0.171881169776909 0.09678448851399618 -5.873661703732637e-05 -0.09666629161875347 -0.1720008446641041 -0.1966385889868444 -0.1716071663358981 -0.09684691558356856 -0.002705651799207524 0.09670256944306957 0.1698093469022568 0.1990107094998168 0.1695507715584066 0.09815842105030982 0.003037416827290034 -0.09666970320816208 -0.1715153350737323 -0.1967565899885855 -0.171881169776909 -0.09678448851399618 5.873661703732637e-05 0.09666504085926074 0.172001040347619 0.1966360278039892 0.1716028656338767 0.09684495968024417 0.002699758511001214 -0.09670200558139205 -0.1698145773740845 -0.199020949534402 -0.1695527968378081 -0.09816918736951342 -0.003034481074238085 0.09666168841097554 0.171500735813297 0.1967540968887222 0.1718680857533927 0.09676533248191332 -6.621977839866991e-05 -0.09668722992977792 -0.1719999500149894 -0.1966561392368879 -0.1716298265922671 -0.09685671981680583 -0.002727660577533435 0.09670263236509269 0.1697944469669511 0.1989778388742642 0.1695481019303662 0.09812620600475506 0.003050011871276669 -0.09669691802948165 -0.1715349958407324 -0.1967833163608404 -0.1718600142580971 -0.09694084932556923 0.000793551363347306 0.1104030486499515 0.1998215558799432 0.2382675516498131 0.2271466159752431 0.1662804660167019 0.08601756344534495 0.0005249389671936898 -0.0587173274563977 -0.07402131384091862 -0.03067752554035444 0.05461884648516422 0.1636147057237345 0.2772375242607443 0.3659223770704081 0.4051155724242022 0.3940627244990813 0.332920964980885 0.2498958340901292 0.1672616998380616 0.1057224907351888 0.09508576071806293 0.1338714360892457 0.2226789895969339 0.3305281455244744 0.4440389620641546 0.53078279273148 0.5741794049839366 0.5582251609605779 0.5012264572075557 0.4192860920937646 0.3344314381356288 0.2600736903472028 0.2194054460532824 0.2312219007515849 0.291870782070566 0.3752409175614298 0.4576286368786161 0.5193450102830646 0.529865905759981 0.4911392158940865 0.4023187180208772 0.2944455736729235 0.1810033304287986 0.09413760968055286 0.05092389395934599 0.06660601918483762 0.124014749720154 0.205332273935951 0.2910623765910849 0.3521027095788056 0.363364243221411 0.3247074771492006 0.2356046971741362 0.1249870840843002 0.01436640810152834 -0.07473252019297419 -0.1133773667953013 -0.1021090496953571 -0.0413914962441424 0.03906488933640429 0.1243412939047466 0.1838296704348333 0.1988133206700333 0.1558559219945575 0.070098232330929 -0.0382473193129144 -0.1527707358493413 -0.2281475797577427 -0.237918647195222 -0.2000287715705571 -0.110341837637829 -0.0008832305540477615 0.09691125149583452 0.1718122007159325 0.1967606843794255 0.1714813885123321 0.09691863405456592 0.002637915633326699 -0.09665931728546841 -0.1698677157824748 -0.1989835138387656 -0.1696034063636782 -0.09812086873563401 -0.003083961828841345 0.09669233900795858 0.1714769385043646 0.1967682610658373 0.1718628202761046 0.09678891906218835 -7.612425488001975e-05 -0.09666512868647278 -0.1720154508973119 -0.1966336261835481 -0.1716184425391196 -0.09684679025405238 -0.002707612813217033 0.09670081143473547 0.1698092391087203 0.1990059636067566 0.1695542345727846 0.09815193361994101 0.003045743924177613 -0.09667554719051868 -0.171507390937378 -0.1967614141237556 -0.1718769518583047 -0.09679406679734719 6.469950685749183e-05 0.09665473991073252 0.1720087637700965 0.1966273174270258 0.1716114193038143 0.09683646446551425 0.002711106692788884 -0.09671330737261016 -0.1697990555792793 -0.1990330482950682 -0.1695284236896773 -0.09819718201451062 -0.002984166398789288 0.096580820137297 0.1716652560044542 0.1964140011273594 0.1732598504556427 0.1022606504504506 0.005131132375102101 -0.08598833762527876 -0.1625227214656408 -0.1812097999546194 -0.1574078111690978 -0.07708902547733792 0.01660992714368134 0.1204549324049893 0.1945079796764695 0.2265632946990934 0.1997255975988787 0.1295251891071211 0.03858607628819206 -0.06129223747802618 -0.1308851879558592 -0.1570129289627106 -0.1265752189825465 -0.05221500338515389 0.04590882779262224 0.1467697966762867 0.2220207710645836 0.2515196712103926 0.2263980074626527 0.1558998820730965 0.06302854611665464 -0.03687578904562701 -0.1050955103926419 -0.1339922640057475 -0.1043243380240501 -0.02793226293125329 0.06656580621727366 0.167693942539974 0.2466091467534307 0.2718996523535001 0.2464083445447307 0.1746448306673776 0.0805018052121759 -0.01698981504454797 -0.0917112482347606 -0.1119881634713376 -0.08651843026670701 -0.01180874438070155 0.08198085141393166 0.1848363978413506 0.2604951551204761 0.2884797557219597 0.2600737905555893 0.1874191561065252 0.09632831146748762 -0.001303634394692544 -0.07669160237183685 -0.1016648140607876 -0.0769466827142881 -0.001751004117408568 0.09502258155865223 0.1916825301052749 0.2669762842351758 0.2916531834749688 0.2665799247358562 0.1918602309826479 0.0976846014585777 -0.001689172643147152 -0.07483067574554396 -0.1040026180429075 -0.07457390447545383 -0.00314147759376219 0.09193622682036143 0.1916898192772565 0.2664791818368637 0.2917808431864762 0.266846153911372 0.1918120945505924 0.09489344468124031 -0.001614169767540145 -0.07716428128657911 -0.1063417925141235 -0.08175343146737012 -0.006731886136695692 0.08716823940765042 0.1868140377373501 0.2550654999111676 0.2840481396977934 0.2543604397109774 0.1836129048791268 0.0849868904978064 -0.0172833480244141 -0.0910913910995468 -0.1172992849352008 -0.09648640734155749 -0.02214280329238486 0.0755882039627139 0.1696398781197423 0.2412851219933751 0.2673337698315802 0.2388837188357586 0.1611739355532752 0.06838041848392598 -0.03509254091677232 -0.1103520385371273 -0.1384560445205099 -0.1136741485388992 -0.04312987407717771 0.04928296772848206 0.145624644090838 0.2225894777970959 0.2423262397704877 0.2174446142384018 0.1386107870572293 0.03995626740049012 -0.05855016733351526 -0.1375034479453154 -0.1623366250017606 -0.1424328969838951 -0.06663682229336799 0.02148604483033046 0.1224439166667697 0.1894113039978573 0.2198763025183035 0.1849550793778116 0.1138017759905941 0.01454264846938667 -0.08648434686346633 -0.1637636040991039 -0.192087391498496 -0.1678959318625274 -0.09757909273638853 0.0005397440337589126 0.0963076476411807 0.1722738870772729 0.1964111552367243 0.1717919872674913 0.09668212047212556 0.00284664974288564 -0.09682907410362533 -0.1697030596335074 -0.1991098501481459 -0.1694703983431901 -0.09823148915188386 -0.002976430827713426 0.09661127769667609 0.1715619297494794 0.1967092536175905 0.1719204724787775 0.09674668613312898 -2.986402032050951e-05 -0.09669547656050689 -0.1719803614406059 -0.1966581398777892 -0.1715930967932557 -0.09686179227381364 -0.002694004843171432 0.0966917016246769 0.1698162876013966 0.1990033730222524 0.169554273736392 0.09815527159785017 0.003038763607198445 -0.09667148265090654 -0.1715150367212997 -0.1967573579136503 -0.1718808474518547 -0.09678448851399618 5.873661703732637e-05 0.09666629161875347 0.1720008446641041 0.1966385889868444 0.1716071663358981 0.09684691558356856 0.002705651799207524 -0.09670256944306957 -0.1698093469022568 -0.1990107094998168 -0.1695507715584066 -0.09815842105030982 -0.003037416827290034 0.09666970320816208 0.1715153350737323 0.1967565899885855 0.171881169776909 0.09678448851399618 -5.873661703732637e-05 -0.09666629161875347 -0.1720008446641041 -0.1966385889868444 -0.1716071663358981 -0.09684691558356856 -0.002705651799207524 0.09670256944306957 0.1698093469022568 0.1990107094998168 0.1695507715584066 0.09815842105030982 0.003037416827290034 -0.09666970320816208 -0.1715153350737323 -0.1967565899885855 -0.171881169776909 -0.09678448851399618 5.873661703732637e-05 0.09666629161875347 0.1720008446641041 0.1966385889868444 0.1716071663358981 0.09684691558356856 0.002705651799207524 -0.09670256944306957 -0.1698093469022568 -0.1990107094998168 -0.1695507715584066 -0.09815842105030982 -0.003037416827290034 0.09666970320816208 0.1715153350737323 0.1967565899885855 0.171881169776909 0.09678448851399618 -5.873661703732637e-05 -0.09666629161875347 -0.1720008446641041 -0.1966385889868444 -0.1716071663358981 -0.09684691558356856 -0.002705651799207524 0.09670256944306957 0.1698093469022568 0.1990107094998168 0.1695507715584066 0.09815842105030982 0.003037416827290034 -0.09666970320816208 -0.1715153350737323 -0.1967565899885855 -0.171881169776909 -0.09678448851399618 5.873661703732637e-05 0.09666629161875347 0.1720008446641041 0.1966385889868444 0.1716071663358981 0.09684691558356856 0.002705651799207524 -0.09670256944306957 -0.1698093469022568 -0.1990107094998168 -0.1695507715584066 -0.09815842105030982 -0.003037416827290034 0.09666970320816208 0.1715153350737323 0.1967565899885855 0.171881169776909 0.09678448851399618 -5.873661703732637e-05 -0.09666629161875347 -0.1720008446641041 -0.1966385889868444 -0.1716071663358981 -0.09684691558356856 -0.002705651799207524 0.09670256944306957 0.1698093469022568 0.1990107094998168 0.1695507715584066 0.09815842105030982 0.003037416827290034 -0.09666970320816208 -0.1715153350737323 -0.1967565899885855 -0.171881169776909 -0.09678448851399618 5.873661703732637e-05 0.09666629161875347 0.1720008446641041 0.1966385889868444 0.1716071663358981 0.09684691558356856 0.002705651799207524 -0.09670256944306957 -0.1698093469022568 -0.1990107094998168 -0.1695507715584066 -0.09815842105030982 -0.003037416827290034 0.09666970320816208 0.1715153350737323 0.1967565899885855 0.171881169776909 0.09678448851399618 -5.873661703732637e-05 -0.09666629161875347 -0.1720008446641041 -0.1966385889868444 -0.1716071663358981 -0.09684691558356856 -0.002705651799207524 0.09670256944306957 0.1698093469022568 0.1990107094998168 0.1695507715584066 0.09815842105030982 0.003037416827290034 -0.09666970320816208 -0.1715153350737323 -0.1967565899885855 -0.171881169776909 -0.09678448851399618 5.873661703732637e-05 0.09666629161875347 0.1720008446641041 0.1966385889868444 0.1716071663358981 0.09684691558356856 0.002705651799207524 -0.09670256944306957 -0.1698093469022568 -0.1990107094998168 -0.1695507715584066 -0.09815842105030982 -0.003037416827290034 0.09666970320816208 0.1715153350737323 0.1967565899885855 0.171881169776909 0.09678448851399618 -5.873661703732637e-05 -0.09666629161875347 -0.1720008446641041 -0.1966385889868444 -0.1716071663358981 -0.09684691558356856 -0.002705651799207524 0.09670256944306957 0.1698093469022568 0.1990107094998168 0.1695507715584066 0.09815842105030982 0.003037416827290034 -0.09666970320816208 -0.1715153350737323 -0.1967565899885855 -0.171881169776909 -0.09678448851399618 5.873661703732637e-05 0.09666629161875347 0.1720008446641041 0.1966385889868444 0.1716071663358981 0.09684691558356856 0.002705651799207524 -0.09670256944306957 -0.1698093469022568 -0.1990107094998168 -0.1695507715584066 -0.09815842105030982 -0.003037416827290034 0.09666970320816208 0.1715153350737323 0.1967565899885855 0.171881169776909 0.09678448851399618 -5.873661703732637e-05 -0.09666629161875347 -0.1720008446641041 -0.1966385889868444 -0.1716071663358981 -0.09684691558356856 -0.002705651799207524 0.09670256944306957 0.1698093469022568 0.1990107094998168 0.1695507715584066 0.09815842105030982 0.003037416827290034 -0.09666970320816208 -0.1715153350737323 -0.1967565899885855 -0.171881169776909 -0.09678448851399618 5.873661703732637e-05 0.09666504085926074 0.172001040347619 0.1966360278039892 0.1716028656338767 0.09684495968024417 0.002699758511001214 -0.09670200558139205 -0.1698145773740845 -0.199020949534402 -0.1695527968378081 -0.09816918736951342 -0.003034481074238085 0.09666168841097554 0.171500735813297 0.1967540968887222 0.1718680857533927 0.09676533248191332 -6.621977839866991e-05 -0.09668722992977792 -0.1719999500149894 -0.1966561392368879 -0.1716298265922671 -0.09685671981680583 -0.002727660577533435 0.09670263236509269 0.1697944469669511 0.1989778388742642 0.1695481019303662 0.09812620600475506 0.003050011871276669 -0.09669691802948165 -0.1715349958407324 -0.1967833163608404 -0.1718600142580971 -0.09694084932556923 0.000793551363347306 0.1104030486499515 0.1998215558799432 0.2382675516498131 0.2271466159752431 0.1662804660167019 0.08601756344534495 0.0005249389671936898 -0.0587173274563977 -0.07402131384091862 -0.03067752554035444 0.05461884648516422 0.1636147057237345 0.2772375242607443 0.3659223770704081 0.4051155724242022 0.3940627244990813 0.332920964980885 0.2498958340901292 0.1672616998380616 0.1057224907351888 0.09508576071806293 0.1338714360892457 0.2226789895969339 0.3305281455244744 0.4440389620641546 0.53078279273148 0.5741794049839366 0.5582251609605779 0.5012264572075557 0.4192860920937646 0.3344314381356288 0.2600736903472028 0.2194054460532824 0.2312219007515849 0.291870782070566 0.3752409175614298 0.4576286368786161 0.5193450102830646 0.529865905759981 0.4911392158940865 0.4023187180208772 0.2944455736729235 0.1810033304287986 0.09413760968055286 0.05092389395934599 0.06660601918483762 0.124014749720154 0.205332273935951 0.2910623765910849 0.3521027095788056 0.363364243221411 0.3247074771492006 0.2356046971741362 0.1249870840843002 0.01436640810152834 -0.07473252019297419 -0.1133773667953013 -0.1021090496953571 -0.0413914962441424 0.03906488933640429 0.1243412939047466 0.1838296704348333 0.1988133206700333 0.1558559219945575 0.070098232330929 -0.0382473193129144 -0.1527707358493413 -0.2281475797577427 -0.237918647195222 -0.2000287715705571 -0.110341837637829 -0.0008832305540477615 0.09691125149583452 0.1718122007159325 0.1967606843794255 0.1714813885123321 0.09691863405456592 0.002637915633326699 -0.09665931728546841 -0.1698677157824748 -0.1989835138387656 -0.1696034063636782 -0.09812086873563401 -0.003083961828841345 0.09669233900795858 0.1714769385043646 0.1967682610658373 0.1718628202761046 0.09678891906218835 -7.612425488001975e-05 -0.09666512868647278 -0.1720154508973119 -0.1966336261835481 -0.1716184425391196 -0.09684679025405238 -0.002707612813217033 0.09670081143473547 0.1698092391087203 0.1990059636067566 0.1695542345727846 0.09815193361994101 0.003045743924177613 -0.09667554719051868 -0.171507390937378 -0.1967614141237556 -0.1718769518583047 -0.09679406679734719 6.469950685749183e-05 0.09665473991073252 0.1720087637700965 0.1966273174270258 0.1716114193038143 0.09683646446551425 0.002711106692788884 -0.09671330737261016 -0.1697990555792793 -0.1990330482950682 -0.1695284236896773 -0.09819718201451062 -0.002984166398789288 0.096580820137297 0.1716652560044542 0.1964140011273594 0.1732598504556427 0.1022606504504506 0.005131132375102101 -0.08598833762527876 -0.1625227214656408 -0.1812097999546194 -0.1574078111690978 -0.07708902547733792 0.01660992714368134 0.1204549324049893 0.1945079796764695 0.2265632946990934 0.1997255975988787 0.1295251891071211 0.03858607628819206 -0.06129223747802618 -0.1308851879558592 -0.1570129289627106 -0.1265752189825465 -0.05221500338515389 0.04590882779262224 0.1467697966762867 0.2220207710645836 0.2515196712103926 0.2263980074626527 0.1558998820730965 0.06302854611665464 -0.03687578904562701 -0.1050955103926419 -0.1339922640057475 -0.1043243380240501 -0.02793226293125329 0.06656580621727366 0.167693942539974 0.2466091467534307 0.2718996523535001 0.2464083445447307 0.1746448306673776 0.0805018052121759 -0.01698981504454797 -0.0917112482347606 -0.1119881634713376 -0.08651843026670701 -0.01180874438070155 0.08198085141393166 0.1848363978413506 0.2604951551204761 0.2884797557219597 0.2600737905555893 0.1874191561065252 0.09632831146748762 -0.001303634394692544 -0.07669160237183685 -0.1016648140607876 -0.0769466827142881 -0.001751004117408568 0.09502258155865223 0.1916825301052749 0.2669762842351758 0.2916531834749688 0.2665799247358562 0.1918602309826479 0.0976846014585777 -0.001689172643147152 -0.07483067574554396 -0.1040026180429075 -0.07457390447545383 -0.00314147759376219 0.09193622682036143 0.1916898192772565 0.2664791818368637 0.2917808431864762 0.266846153911372 0.1918120945505924 0.09489344468124031 -0.001614169767540145 -0.07716428128657911 -0.1063417925141235 -0.08175343146737012 -0.006731886136695692 0.08716823940765042 0.1868140377373501 0.2550654999111676 0.2840481396977934 0.2543604397109774 0.1836129048791268 0.0849868904978064 -0.0172833480244141 -0.0910913910995468 -0.1172992849352008 -0.09648640734155749 -0.02214280329238486 0.0755882039627139 0.1696398781197423 0.2412851219933751 0.2673337698315802 0.2388837188357586 0.1611739355532752 0.06838041848392598 -0.03509254091677232 -0.1103520385371273 -0.1384560445205099 -0.1136741485388992 -0.04312987407717771 0.04928296772848206 0.145624644090838 0.2225894777970959 0.2423262397704877 0.2174446142384018 0.1386107870572293 0.03995626740049012 -0.05855016733351526 -0.1375034479453154 -0.1623366250017606 -0.1424328969838951 -0.06663682229336799 0.02148604483033046 0.1224439166667697 0.1894113039978573 0.2198763025183035 0.1849550793778116 0.1138017759905941 0.01454264846938667 -0.08648434686346633 -0.1637636040991039 -0.192087391498496 -0.1678959318625274 -0.09757909273638853 0.0005397440337589126 0.0963076476411807 0.1722738870772729 0.1964111552367243 0.1717919872674913 0.09668212047212556 0.00284664974288564 -0.09682907410362533 -0.1697030596335074 -0.1991098501481459 -0.1694703983431901 -0.09823148915188386 -0.002976430827713426 0.09661127769667609 0.1715619297494794 0.1967092536175905 0.1719204724787775 0.09674668613312898 -2.986402032050951e-05 -0.09669547656050689 -0.1719803614406059 -0.1966581398777892 -0.1715930967932557 -0.09686179227381364 -0.002694004843171432 0.0966917016246769 0.1698162876013966 0.1990033730222524 0.169554273736392 0.09815527159785017 0.003038763607198445 -0.09667148265090654 -0.1715150367212997 -0.1967573579136503 -0.1718808474518547 -0.09678448851399618 5.873661703732637e-05 0.09666629161875347 0.1720008446641041 0.1966385889868444 0.1716071663358981 0.09684691558356856 0.002705651799207524 -0.09670256944306957 -0.1698093469022568 -0.1990107094998168 -0.1695507715584066 -0.09815842105030982 -0.003037416827290034 0.09666970320816208 0.1715153350737323 0.1967565899885855 0.171881169776909 0.09678448851399618 -5.873661703732637e-05 -0.09666629161875347 -0.1720008446641041 -0.1966385889868444 -0.1716071663358981 -0.09684691558356856 -0.002705651799207524 0.09670256944306957 0.1698093469022568 0.1990107094998168 0.1695507715584066 0.09815842105030982 0.003037416827290034 -0.09666970320816208 -0.1715153350737323 -0.1967565899885855 -0.171881169776909 -0.09678448851399618 5.873661703732637e-05 0.09666629161875347 0.1720008446641041 0.1966385889868444 0.1716071663358981 0.09684691558356856 0.002705651799207524 -0.09670256944306957 -0.1698093469022568 -0.1990107094998168 -0.1695507715584066 -0.09815842105030982 -0.003037416827290034 0.09666970320816208 0.1715153350737323 0.1967565899885855 0.171881169776909 0.09678448851399618 -5.873661703732637e-05 -0.09666629161875347 -0.1720008446641041 -0.1966385889868444 -0.1716071663358981 -0.09684691558356856 -0.002705651799207524 0.09670256944306957 0.1698093469022568 0.1990107094998168 0.1695507715584066 0.09815842105030982 0.003037416827290034 -0.09666970320816208 -0.1715153350737323 -0.1967565899885855 -0.171881169776909 -0.09678448851399618 5.873661703732637e-05 0.09666629161875347 0.1720008446641041 0.1966385889868444 0.1716071663358981 0.09684691558356856 0.002705651799207524 -0.09670256944306957 -0.1698093469022568 -0.1990107094998168 -0.1695507715584066 -0.09815842105030982 -0.003037416827290034 0.09666970320816208 0.1715153350737323 0.1967565899885855 0.171881169776909 0.09678448851399618 -5.873661703732637e-05 -0.09666629161875347 -0.1720008446641041 -0.1966385889868444 -0.1716071663358981 -0.09684691558356856 -0.002705651799207524 0.09670256944306957 0.1698093469022568 0.1990107094998168 0.1695507715584066 0.09815842105030982 0.003037416827290034 -0.09666970320816208 -0.1715153350737323 -0.1967565899885855 -0.171881169776909 -0.09678448851399618 5.873661703732637e-05 0.09666629161875347 0.1720008446641041 0.1966385889868444 0.1716071663358981 0.09684691558356856 0.002705651799207524 -0.09670256944306957 -0.1698093469022568 -0.1990107094998168 -0.1695507715584066 -0.09815842105030982 -0.003037416827290034 0.09666970320816208 0.1715153350737323 0.1967565899885855 0.171881169776909 0.09678448851399618 -5.873661703732637e-05 -0.09666629161875347 -0.1720008446641041 -0.1966385889868444 -0.1716071663358981 -0.09684691558356856 -0.002705651799207524 0.09670256944306957 0.1698093469022568 0.1990107094998168 0.1695507715584066 0.09815842105030982 0.003037416827290034 -0.09666970320816208 -0.1715153350737323 -0.1967565899885855 -0.171881169776909 -0.09678448851399618 5.873661703732637e-05 0.09666629161875347 0.1720008446641041 0.1966385889868444 0.1716071663358981 0.09684691558356856 0.002705651799207524 -0.09670256944306957 -0.1698093469022568 -0.1990107094998168 -0.1695507715584066 -0.09815842105030982 -0.003037416827290034 0.09666970320816208 0.1715153350737323 0.1967565899885855 0.171881169776909 0.09678448851399618 -5.873661703732637e-05 -0.09666629161875347 -0.1720008446641041 -0.1966385889868444 -0.1716071663358981 -0.09684691558356856 -0.002705651799207524 0.09670256944306957 0.1698093469022568 0.1990107094998168 0.1695507715584066 0.09815842105030982 0.003037416827290034 -0.09666970320816208 -0.1715153350737323 -0.1967565899885855 -0.171881169776909 -0.09678448851399618 5.873661703732637e-05 0.09666629161875347 0.1720008446641041 0.1966385889868444 0.1716071663358981 0.09684691558356856 0.002705651799207524 -0.09670256944306957 -0.1698093469022568 -0.1990107094998168 -0.1695507715584066 -0.09815842105030982 -0.003037416827290034 0.09666970320816208 0.1715153350737323 0.1967565899885855 0.171881169776909 0.09678448851399618 -5.873661703732637e-05 -0.09666629161875347 -0.1720008446641041 -0.1966385889868444 -0.1716071663358981 -0.09684691558356856 -0.002705651799207524 0.09670256944306957 0.1698093469022568 0.1990107094998168 0.1695507715584066 0.09815842105030982 0.003037416827290034 -0.09666970320816208 -0.1715153350737323 -0.1967565899885855 -0.171881169776909 -0.09678448851399618 5.873661703732637e-05 0.09666504085926074 0.172001040347619 0.1966360278039892 0.1716028656338767 0.09684495968024417 0.002699758511001214 -0.09670200558139205 -0.1698145773740845 -0.199020949534402 -0.1695527968378081 -0.09816918736951342 -0.003034481074238085 0.09666168841097554 0.171500735813297 0.1967540968887222 0.1718680857533927 0.09676533248191332 -6.621977839866991e-05 -0.09668722992977792 -0.1719999500149894 -0.1966561392368879 -0.1716298265922671 -0.09685671981680583 -0.002727660577533435 0.09670263236509269 0.1697944469669511 0.1989778388742642 0.1695481019303662 0.09812620600475506 0.003050011871276669 -0.09669691802948165 -0.1715349958407324 -0.1967833163608404 -0.1718600142580971 -0.09694084932556923 0.000793551363347306 0.1104030486499515 0.1998215558799432 0.2382675516498131 0.2271466159752431 0.1662804660167019 0.08601756344534495 0.0005249389671936898 -0.0587173274563977 -0.07402131384091862 -0.03067752554035444 0.05461884648516422 0.1636147057237345 0.2772375242607443 0.3659223770704081 0.4051155724242022 0.3940627244990813 0.332920964980885 0.2498958340901292 0.1672616998380616 0.1057224907351888 0.09508576071806293 0.1338714360892457 0.2226789895969339 0.3305281455244744 0.4440389620641546 0.53078279273148 0.5741794049839366 0.5582251609605779 0.5012264572075557 0.4192860920937646 0.3344314381356288 0.2600736903472028 0.2194054460532824 0.2312219007515849 0.291870782070566 0.3752409175614298 0.4576286368786161 0.5193450102830646 0.529865905759981 0.4911392158940865 0.4023187180208772 0.2944455736729235 0.1810033304287986 0.09413760968055286 0.05092389395934599 0.06660601918483762 0.124014749720154 0.205332273935951 0.2910623765910849 0.3521027095788056 0.363364243221411 0.3247074771492006 0.2356046971741362 0.1249870840843002 0.01436640810152834 -0.07473252019297419 -0.1133773667953013 -0.1021090496953571 -0.0413914962441424 0.03906488933640429 0.1243412939047466 0.1838296704348333 0.1988133206700333 0.1558559219945575 0.070098232330929 -0.0382473193129144 -0.1527707358493413 -0.2281475797577427 -0.237918647195222 -0.2000287715705571 -0.110341837637829 -0.0008832305540477615 0.09691125149583452 0.1718122007159325 0.1967606843794255 0.1714813885123321 0.09691863405456592 0.002637915633326699 -0.09665931728546841 -0.1698677157824748 -0.1989835138387656 -0.1696034063636782 -0.09812086873563401 -0.003083961828841345 0.09669233900795858 0.1714769385043646 0.1967682610658373 0.1718628202761046 0.09678891906218835 -7.612425488001975e-05 -0.09666512868647278 -0.1720154508973119 -0.1966336261835481 -0.1716184425391196 -0.09684679025405238 -0.002707612813217033 0.09670081143473547 0.1698092391087203 0.1990059636067566 0.1695542345727846 0.09815193361994101 0.003045743924177613 -0.09667554719051868 -0.171507390937378 -0.1967614141237556 -0.1718769518583047 -0.09679406679734719 6.469950685749183e-05 0.09665473991073252 0.1720087637700965 0.1966273174270258 0.1716114193038143 0.09683646446551425 0.002711106692788884 -0.09671330737261016 -0.1697990555792793 -0.1990330482950682 -0.1695284236896773 -0.09819718201451062 -0.002984166398789288 0.096580820137297 0.1716652560044542 0.1964140011273594 0.1732598504556427 0.1022606504504506 0.005131132375102101 -0.08598833762527876 -0.1625227214656408 -0.1812097999546194 -0.1574078111690978 -0.07708902547733792 0.01660992714368134 0.1204549324049893 0.1945079796764695 0.2265632946990934 0.1997255975988787 0.1295251891071211 0.03858607628819206 -0.06129223747802618 -0.1308851879558592 -0.1570129289627106 -0.1265752189825465 -0.05221500338515389 0.04590882779262224 0.1467697966762867 0.2220207710645836 0.2515196712103926 0.2263980074626527 0.1558998820730965 0.06302854611665464 -0.03687578904562701 -0.1050955103926419 -0.1339922640057475 -0.1043243380240501 -0.02793226293125329 0.06656580621727366 0.167693942539974 0.2466091467534307 0.2718996523535001 0.2464083445447307 0.1746448306673776 0.0805018052121759 -0.01698981504454797 -0.0917112482347606 -0.1119881634713376 -0.08651843026670701 -0.01180874438070155 0.08198085141393166 0.1848363978413506 0.2604951551204761 0.2884797557219597 0.2600737905555893 0.1874191561065252 0.09632831146748762 -0.001303634394692544 -0.07669160237183685 -0.1016648140607876 -0.0769466827142881 -0.001751004117408568 0.09502258155865223 0.1916825301052749 0.2669762842351758 0.2916531834749688 0.2665799247358562 0.1918602309826479 0.0976846014585777 -0.001689172643147152 -0.07483067574554396 -0.1040026180429075 -0.07457390447545383 -0.00314147759376219 0.09193622682036143 0.1916898192772565 0.2664791818368637 0.2917808431864762 0.266846153911372 0.1918120945505924 0.09489344468124031 -0.001614169767540145 -0.07716428128657911 -0.1063417925141235 -0.08175343146737012 -0.006731886136695692 0.08716823940765042 0.1868140377373501 0.2550654999111676 0.2840481396977934 0.2543604397109774 0.1836129048791268 0.0849868904978064 -0.0172833480244141 -0.0910913910995468 -0.1172992849352008 -0.09648640734155749 -0.02214280329238486 0.0755882039627139 0.1696398781197423 0.2412851219933751 0.2673337698315802 0.2388837188357586 0.1611739355532752 0.06838041848392598 -0.03509254091677232 -0.1103520385371273 -0.1384560445205099 -0.1136741485388992 -0.04312987407717771 0.04928296772848206 0.145624644090838 0.2225894777970959 0.2423262397704877 0.2174446142384018 0.1386107870572293 0.03995626740049012 -0.05855016733351526 -0.1375034479453154 -0.1623366250017606 -0.1424328969838951 -0.06663682229336799 0.02148604483033046 0.1224439166667697 0.1894113039978573 0.2198763025183035 0.1849550793778116 0.1138017759905941 0.01454264846938667 -0.08648434686346633 -0.1637636040991039 -0.192087391498496 -0.1678959318625274 -0.09757909273638853 0.0005397440337589126 0.0963076476411807 0.1722738870772729 0.1964111552367243 0.1717919872674913 0.09668212047212556 0.00284664974288564 -0.09682907410362533 -0.1697030596335074 -0.1991098501481459 -0.1694703983431901 -0.09823148915188386 -0.002976430827713426 0.09661127769667609 0.1715619297494794 0.1967092536175905 0.1719204724787775 0.09674668613312898 -2.986402032050951e-05 -0.09669547656050689 -0.1719803614406059 -0.1966581398777892 -0.1715930967932557 -0.09686179227381364 -0.002694004843171432 0.0966917016246769 0.1698162876013966 0.1990033730222524 0.169554273736392 0.09815527159785017 0.003038763607198445 -0.09667148265090654 -0.1715150367212997 -0.1967573579136503 -0.1718808474518547 -0.09678448851399618 5.873661703732637e-05 0.09666629161875347 0.1720008446641041 0.1966385889868444 0.1716071663358981 0.09684691558356856 0.002705651799207524 -0.09670256944306957 -0.1698093469022568 -0.1990107094998168 -0.1695507715584066 -0.09815842105030982 -0.003037416827290034 0.09666970320816208 0.1715153350737323 0.1967565899885855 0.171881169776909 0.09678448851399618 -5.873661703732637e-05 -0.09666629161875347 -0.1720008446641041 -0.1966385889868444 -0.1716071663358981 -0.09684691558356856 -0.002705651799207524 0.09670256944306957 0.1698093469022568 0.1990107094998168 0.1695507715584066 0.09815842105030982 0.003037416827290034 -0.09666970320816208 -0.1715153350737323 -0.1967565899885855 -0.171881169776909 -0.09678448851399618 5.873661703732637e-05 0.09666629161875347 0.1720008446641041 0.1966385889868444 0.1716071663358981 0.09684691558356856 0.002705651799207524 -0.09670256944306957 -0.1698093469022568 -0.1990107094998168 -0.1695507715584066 -0.09815842105030982 -0.003037416827290034 0.09666970320816208 0.1715153350737323 0.1967565899885855 0.171881169776909 0.09678448851399618 -5.873661703732637e-05 -0.09666629161875347 -0.1720008446641041 -0.1966385889868444 -0.1716071663358981 -0.09684691558356856 -0.002705651799207524 0.09670256944306957 0.1698093469022568 0.1990107094998168 0.1695507715584066 0.09815842105030982 0.003037416827290034 -0.09666970320816208 -0.1715153350737323 -0.1967565899885855 -0.171881169776909 -0.09678448851399618 5.873661703732637e-05 0.09666629161875347 0.1720008446641041 0.1966385889868444 0.1716071663358981 0.09684691558356856 0.002705651799207524 -0.09670256944306957 -0.1698093469022568 -0.1990107094998168 -0.1695507715584066 -0.09815842105030982 -0.003037416827290034 0.09666970320816208 0.1715153350737323 0.1967565899885855 0.171881169776909 0.09678448851399618 -5.873661703732637e-05 -0.09666629161875347 -0.1720008446641041 -0.1966385889868444 -0.1716071663358981 -0.09684691558356856 -0.002705651799207524 0.09670256944306957 0.1698093469022568 0.1990107094998168 0.1695507715584066 0.09815842105030982 0.003037416827290034 -0.09666970320816208 -0.1715153350737323 -0.1967565899885855 -0.171881169776909 -0.09678448851399618 5.873661703732637e-05 0.09666629161875347 0.1720008446641041 0.1966385889868444 0.1716071663358981 0.09684691558356856 0.002705651799207524 -0.09670256944306957 -0.1698093469022568 -0.1990107094998168 -0.1695507715584066 -0.09815842105030982 -0.003037416827290034 0.09666970320816208 0.1715153350737323 0.1967565899885855 0.171881169776909 0.09678448851399618 -5.873661703732637e-05 -0.09666629161875347 -0.1720008446641041 -0.1966385889868444 -0.1716071663358981 -0.09684691558356856 -0.002705651799207524 0.09670256944306957 0.1698093469022568 0.1990107094998168 0.1695507715584066 0.09815842105030982 0.003037416827290034 -0.09666970320816208 -0.1715153350737323 -0.1967565899885855 -0.171881169776909 -0.09678448851399618 5.873661703732637e-05 0.09666629161875347 0.1720008446641041 0.1966385889868444 0.1716071663358981 0.09684691558356856 0.002705651799207524 -0.09670256944306957 -0.1698093469022568 -0.1990107094998168 -0.1695507715584066 -0.09815842105030982 -0.003037416827290034 0.09666970320816208 0.1715153350737323 0.1967565899885855 0.171881169776909 0.09678448851399618 -5.873661703732637e-05 -0.09666629161875347 -0.1720008446641041 -0.1966385889868444 -0.1716071663358981 -0.09684691558356856 -0.002705651799207524 0.09670256944306957 0.1698093469022568 0.1990107094998168 0.1695507715584066 0.09815842105030982 0.003037416827290034 -0.09666970320816208 -0.1715153350737323 -0.1967565899885855 -0.171881169776909 -0.09678448851399618 5.873661703732637e-05 0.09666629161875347 0.1720008446641041 0.1966385889868444 0.1716071663358981 0.09684691558356856 0.002705651799207524 -0.09670256944306957 -0.1698093469022568 -0.1990107094998168 -0.1695507715584066 -0.09815842105030982 -0.003037416827290034 0.09666970320816208 0.1715153350737323 0.1967565899885855 0.171881169776909 0.09678448851399618 -5.873661703732637e-05 -0.09666629161875347 -0.1720008446641041 -0.1966385889868444 -0.1716071663358981 -0.09684691558356856 -0.002705651799207524 0.09670256944306957 0.1698093469022568 0.1990107094998168 0.1695507715584066 0.09815842105030982 0.003037416827290034 -0.09666970320816208 -0.1715153350737323 -0.1967565899885855 -0.171881169776909 -0.09678448851399618 5.873661703732637e-05 0.09666504085926074 0.172001040347619 0.1966360278039892 0.1716028656338767 0.09684495968024417 0.002699758511001214 -0.09670200558139205 -0.1698145773740845 -0.199020949534402 -0.1695527968378081 -0.09816918736951342 -0.003034481074238085 0.09666168841097554 0.171500735813297 0.1967540968887222 0.1718680857533927 0.09676533248191332 -6.621977839866991e-05 -0.09668722992977792 -0.1719999500149894 -0.1966561392368879 -0.1716298265922671 -0.09685671981680583 -0.002727660577533435 0.09670263236509269 0.1697944469669511 0.1989778388742642 0.1695481019303662 0.09812620600475506 0.003050011871276669 -0.09669691802948165 -0.1715349958407324 -0.1967833163608404 -0.1718600142580971 -0.09694084932556923 0.000793551363347306 0.1104030486499515 0.1998215558799432 0.2382675516498131 0.2271466159752431 0.1662804660167019 0.08601756344534495 0.0005249389671936898 -0.0587173274563977 -0.07402131384091862 -0.03067752554035444 0.05461884648516422 0.1636147057237345 0.2772375242607443 0.3659223770704081 0.4051155724242022 0.3940627244990813 0.332920964980885 0.2498958340901292 0.1672616998380616 0.1057224907351888 0.09508576071806293 0.1338714360892457 0.2226789895969339 0.3305281455244744 0.4440389620641546 0.53078279273148 0.5741794049839366 0.5582251609605779 0.5012264572075557 0.4192860920937646 0.3344314381356288 0.2600736903472028 0.2194054460532824 0.2312219007515849 0.291870782070566 0.3752409175614298 0.4576286368786161 0.5193450102830646 0.529865905759981 0.4911392158940865 0.4023187180208772 0.2944455736729235 0.1810033304287986 0.09413760968055286 0.05092389395934599 0.06660601918483762 0.124014749720154 0.205332273935951 0.2910623765910849 0.3521027095788056 0.363364243221411 0.3247074771492006 0.2356046971741362 0.1249870840843002 0.01436640810152834 -0.07473252019297419 -0.1133773667953013 -0.1021090496953571 -0.0413914962441424 0.03906488933640429 0.1243412939047466 0.1838296704348333 0.1988133206700333 0.1558559219945575 0.070098232330929 -0.0382473193129144 -0.1527707358493413 -0.2281475797577427 -0.237918647195222 -0.2000287715705571 -0.110341837637829 -0.0008832305540477615 0.09691125149583452 0.1718122007159325 0.1967606843794255 0.1714813885123321 0.09691863405456592 