# Created by Octave 4.2.2, Mon Apr 01 15:42:25 2019 -03 <mauricio@mauricio-PC>
# name: ecg
# type: matrix
# rows: 1
# columns: 43200
 -0.5 -0.4986111111111111 -0.4972222222222222 -0.4958333333333333 -0.4944444444444445 -0.4930555555555556 -0.4916666666666666 -0.4902777777777778 -0.4888888888888889 -0.4875 -0.4861111111111111 -0.4847222222222222 -0.4833333333333333 -0.4819444444444445 -0.4805555555555556 -0.4791666666666667 -0.4777777777777778 -0.4763888888888889 -0.475 -0.4736111111111111 -0.4722222222222222 -0.4708333333333333 -0.4694444444444444 -0.4680555555555556 -0.4666666666666667 -0.4652777777777778 -0.4638888888888889 -0.4625 -0.4611111111111111 -0.4597222222222223 -0.4583333333333333 -0.4569444444444444 -0.4555555555555555 -0.4541666666666667 -0.4527777777777778 -0.4513888888888889 -0.45 -0.4486111111111111 -0.4472222222222222 -0.4458333333333333 -0.4444444444444444 -0.4430555555555555 -0.4416666666666667 -0.4402777777777778 -0.4388888888888889 -0.4375 -0.4361111111111111 -0.4347222222222222 -0.4333333333333333 -0.4319444444444445 -0.4305555555555556 -0.4291666666666667 -0.4277777777777778 -0.4263888888888889 -0.425 -0.4236111111111112 -0.4222222222222223 -0.4208333333333334 -0.4194444444444445 -0.4180555555555556 -0.4166666666666667 -0.4152777777777779 -0.413888888888889 -0.4125000000000001 -0.4111111111111112 -0.4097222222222223 -0.4083333333333334 -0.4069444444444446 -0.4055555555555557 -0.4041666666666668 -0.4027777777777779 -0.401388888888889 -0.4000000000000001 -0.3986111111111112 -0.3972222222222224 -0.3958333333333335 -0.3944444444444446 -0.3930555555555557 -0.3916666666666668 -0.3902777777777779 -0.3888888888888891 -0.3875000000000002 -0.3861111111111113 -0.3847222222222224 -0.3833333333333335 -0.3819444444444446 -0.3805555555555558 -0.3791666666666669 -0.377777777777778 -0.3763888888888891 -0.3750000000000002 -0.3736111111111113 -0.3722222222222225 -0.3708333333333336 -0.3694444444444447 -0.3680555555555558 -0.3666666666666669 -0.365277777777778 -0.3638888888888892 -0.3625000000000003 -0.3611111111111114 -0.3597222222222225 -0.3583333333333336 -0.3569444444444447 -0.3555555555555558 -0.354166666666667 -0.3527777777777781 -0.3513888888888892 -0.3500000000000003 -0.3486111111111114 -0.3472222222222225 -0.3458333333333337 -0.3444444444444448 -0.3430555555555559 -0.341666666666667 -0.3402777777777781 -0.3388888888888892 -0.3375000000000004 -0.3361111111111115 -0.3347222222222226 -0.3333333333333337 -0.3319444444444448 -0.3305555555555559 -0.3291666666666671 -0.3277777777777782 -0.3263888888888893 -0.3250000000000004 -0.3236111111111115 -0.3222222222222226 -0.3208333333333337 -0.3194444444444449 -0.318055555555556 -0.3166666666666671 -0.3152777777777782 -0.3138888888888893 -0.3125000000000004 -0.3111111111111116 -0.3097222222222227 -0.3083333333333338 -0.3069444444444449 -0.305555555555556 -0.3041666666666671 -0.3027777777777783 -0.3013888888888894 -0.3000000000000005 -0.2986111111111116 -0.2972222222222227 -0.2958333333333338 -0.294444444444445 -0.2930555555555561 -0.2916666666666672 -0.2902777777777783 -0.2888888888888894 -0.2875000000000005 -0.2861111111111116 -0.2847222222222228 -0.2833333333333339 -0.281944444444445 -0.2805555555555561 -0.2791666666666672 -0.2777777777777783 -0.2763888888888895 -0.2750000000000006 -0.2736111111111117 -0.2722222222222228 -0.2708333333333339 -0.269444444444445 -0.2680555555555562 -0.2666666666666673 -0.2652777777777784 -0.2638888888888895 -0.2625000000000006 -0.2611111111111117 -0.2597222222222229 -0.258333333333334 -0.2569444444444451 -0.2555555555555562 -0.2541666666666673 -0.2527777777777784 -0.2513888888888896 -0.2500000000000007 -0.2486111111111117 -0.2472222222222228 -0.245833333333334 -0.2444444444444451 -0.2430555555555562 -0.2416666666666673 -0.2402777777777784 -0.2388888888888895 -0.2375000000000007 -0.2361111111111118 -0.2347222222222229 -0.233333333333334 -0.2319444444444451 -0.2305555555555562 -0.2291666666666674 -0.2277777777777785 -0.2263888888888896 -0.2250000000000007 -0.2236111111111118 -0.2222222222222229 -0.220833333333334 -0.2194444444444452 -0.2180555555555563 -0.2166666666666674 -0.2152777777777785 -0.2138888888888896 -0.2125000000000007 -0.2111111111111119 -0.209722222222223 -0.2083333333333341 -0.2069444444444452 -0.2055555555555563 -0.2041666666666674 -0.2027777777777786 -0.2013888888888897 -0.2000000000000008 -0.1986111111111119 -0.197222222222223 -0.1958333333333341 -0.1944444444444453 -0.1930555555555564 -0.1916666666666675 -0.1902777777777786 -0.1888888888888897 -0.1875000000000008 -0.1861111111111119 -0.1847222222222231 -0.1833333333333342 -0.1819444444444453 -0.1805555555555564 -0.1791666666666675 -0.1777777777777786 -0.1763888888888898 -0.1750000000000009 -0.173611111111112 -0.1722222222222231 -0.1708333333333342 -0.1694444444444453 -0.1680555555555565 -0.1666666666666676 -0.1652777777777787 -0.1638888888888898 -0.1625000000000009 -0.161111111111112 -0.1597222222222232 -0.1583333333333343 -0.1569444444444454 -0.1555555555555565 -0.1541666666666676 -0.1527777777777787 -0.1513888888888898 -0.150000000000001 -0.1486111111111121 -0.1472222222222232 -0.1458333333333343 -0.1444444444444454 -0.1430555555555565 -0.1416666666666677 -0.1402777777777788 -0.1388888888888899 -0.137500000000001 -0.1361111111111121 -0.1347222222222232 -0.1333333333333344 -0.1319444444444455 -0.1305555555555566 -0.1291666666666677 -0.1277777777777788 -0.1263888888888899 -0.1250000000000011 -0.1236111111111122 -0.1222222222222233 -0.1208333333333344 -0.1194444444444455 -0.1180555555555566 -0.1166666666666678 -0.1152777777777789 -0.11388888888889 -0.1125000000000011 -0.1111111111111122 -0.1097222222222233 -0.1083333333333344 -0.1069444444444456 -0.1055555555555567 -0.1041666666666678 -0.1027777777777789 -0.10138888888889 -0.1000000000000011 -0.09861111111111226 -0.09722222222222338 -0.09583333333333449 -0.09444444444444561 -0.09305555555555672 -0.09166666666666784 -0.09027777777777896 -0.08888888888889007 -0.08750000000000119 -0.0861111111111123 -0.08472222222222342 -0.08333333333333454 -0.08194444444444565 -0.08055555555555677 -0.07916666666666788 -0.077777777777779 -0.07638888888889012 -0.07500000000000123 -0.07361111111111235 -0.07222222222222346 -0.07083333333333458 -0.0694444444444457 -0.06805555555555681 -0.06666666666666793 -0.06527777777777904 -0.06388888888889016 -0.06250000000000128 -0.06111111111111239 -0.05972222222222351 -0.05833333333333462 -0.05694444444444574 -0.05555555555555686 -0.05416666666666797 -0.05277777777777909 -0.05138888888889021 -0.05000000000000132 -0.04861111111111244 -0.04722222222222355 -0.04583333333333467 -0.04444444444444579 -0.0430555555555569 -0.04166666666666802 -0.04027777777777913 -0.03888888888889025 -0.03750000000000137 -0.03611111111111248 -0.0347222222222236 -0.03333333333333471 -0.03194444444444583 -0.03055555555555695 -0.02916666666666806 -0.02777777777777918 -0.02638888888889029 -0.02500000000000141 -0.02361111111111253 -0.02222222222222364 -0.02083333333333476 -0.01944444444444587 -0.01805555555555699 -0.01666666666666811 -0.01527777777777922 -0.01388888888889034 -0.01250000000000145 -0.01111111111111257 -0.009722222222223686 -0.008333333333334803 -0.006944444444445919 -0.005555555555557035 -0.004166666666668151 -0.002777777777779267 -0.001388888888890383 -1.498801083243961e-15 0.001388888888887441 0.002777777777776325 0.004166666666665209 0.005555555555554093 0.006944444444442976 0.00833333333333186 0.009722222222220744 0.01111111111110963 0.01249999999999851 0.0138888888888874 0.01527777777777628 0.01666666666666516 0.01805555555555405 0.01944444444444293 0.02083333333333182 0.0222222222222207 0.02361111111110958 0.02499999999999847 0.02638888888888735 0.02777777777777624 0.02916666666666512 0.030555555555554 0.03194444444444289 0.03333333333333177 0.03472222222222066 0.03611111111110954 0.03749999999999842 0.03888888888888731 0.04027777777777619 0.04166666666666508 0.04305555555555396 0.04444444444444284 0.04583333333333173 0.04722222222222061 0.0486111111111095 0.04999999999999838 0.05138888888888726 0.05277777777777615 0.05416666666666503 0.05555555555555391 0.0569444444444428 0.05833333333333168 0.05972222222222057 0.06111111111110945 0.06249999999999833 0.06388888888888722 0.0652777777777761 0.06666666666666499 0.06805555555555387 0.06944444444444275 0.07083333333333164 0.07222222222222052 0.07361111111110941 0.07499999999999829 0.07638888888888717 0.07777777777777606 0.07916666666666494 0.08055555555555383 0.08194444444444271 0.08333333333333159 0.08472222222222048 0.08611111111110936 0.08749999999999825 0.08888888888888713 0.09027777777777601 0.0916666666666649 0.09305555555555378 0.09444444444444267 0.09583333333333155 0.09722222222222043 0.09861111111110932 0.0999999999999982 0.1013888888888871 0.102777777777776 0.1041666666666649 0.1055555555555537 0.1069444444444426 0.1083333333333315 0.1097222222222204 0.1111111111111093 0.1124999999999982 0.113888888888887 0.1152777777777759 0.1166666666666648 0.1180555555555537 0.1194444444444426 0.1208333333333315 0.1222222222222203 0.1236111111111092 0.1249999999999981 0.126388888888887 0.1277777777777759 0.1291666666666648 0.1305555555555536 0.1319444444444425 0.1333333333333314 0.1347222222222203 0.1361111111111092 0.1374999999999981 0.138888888888887 0.1402777777777758 0.1416666666666647 0.1430555555555536 0.1444444444444425 0.1458333333333314 0.1472222222222203 0.1486111111111091 0.149999999999998 0.1513888888888869 0.1527777777777758 0.1541666666666647 0.1555555555555536 0.1569444444444424 0.1583333333333313 0.1597222222222202 0.1611111111111091 0.162499999999998 0.1638888888888869 0.1652777777777757 0.1666666666666646 0.1680555555555535 0.1694444444444424 0.1708333333333313 0.1722222222222202 0.1736111111111091 0.1749999999999979 0.1763888888888868 0.1777777777777757 0.1791666666666646 0.1805555555555535 0.1819444444444424 0.1833333333333312 0.1847222222222201 0.186111111111109 0.1874999999999979 0.1888888888888868 0.1902777777777757 0.1916666666666645 0.1930555555555534 0.1944444444444423 0.1958333333333312 0.1972222222222201 0.198611111111109 0.1999999999999978 0.2013888888888867 0.2027777777777756 0.2041666666666645 0.2055555555555534 0.2069444444444423 0.2083333333333311 0.20972222222222 0.2111111111111089 0.2124999999999978 0.2138888888888867 0.2152777777777756 0.2166666666666645 0.2180555555555533 0.2194444444444422 0.2208333333333311 0.22222222222222 0.2236111111111089 0.2249999999999978 0.2263888888888866 0.2277777777777755 0.2291666666666644 0.2305555555555533 0.2319444444444422 0.2333333333333311 0.2347222222222199 0.2361111111111088 0.2374999999999977 0.2388888888888866 0.2402777777777755 0.2416666666666644 0.2430555555555532 0.2444444444444421 0.245833333333331 0.2472222222222199 0.2486111111111088 0.2499999999999977 0.2513888888888866 0.2527777777777754 0.2541666666666643 0.2555555555555532 0.2569444444444421 0.258333333333331 0.2597222222222199 0.2611111111111087 0.2624999999999976 0.2638888888888865 0.2652777777777754 0.2666666666666643 0.2680555555555532 0.269444444444442 0.2708333333333309 0.2722222222222198 0.2736111111111087 0.2749999999999976 0.2763888888888865 0.2777777777777753 0.2791666666666642 0.2805555555555531 0.281944444444442 0.2833333333333309 0.2847222222222198 0.2861111111111087 0.2874999999999975 0.2888888888888864 0.2902777777777753 0.2916666666666642 0.2930555555555531 0.294444444444442 0.2958333333333308 0.2972222222222197 0.2986111111111086 0.2999999999999975 0.3013888888888864 0.3027777777777753 0.3041666666666641 0.305555555555553 0.3069444444444419 0.3083333333333308 0.3097222222222197 0.3111111111111086 0.3124999999999974 0.3138888888888863 0.3152777777777752 0.3166666666666641 0.318055555555553 0.3194444444444419 0.3208333333333308 0.3222222222222196 0.3236111111111085 0.3249999999999974 0.3263888888888863 0.3277777777777752 0.3291666666666641 0.3305555555555529 0.3319444444444418 0.3333333333333307 0.3347222222222196 0.3361111111111085 0.3374999999999974 0.3388888888888862 0.3402777777777751 0.341666666666664 0.3430555555555529 0.3444444444444418 0.3458333333333307 0.3472222222222195 0.3486111111111084 0.3499999999999973 0.3513888888888862 0.3527777777777751 0.354166666666664 0.3555555555555528 0.3569444444444417 0.3583333333333306 0.3597222222222195 0.3611111111111084 0.3624999999999973 0.3638888888888862 0.365277777777775 0.3666666666666639 0.3680555555555528 0.3694444444444417 0.3708333333333306 0.3722222222222195 0.3736111111111083 0.3749999999999972 0.3763888888888861 0.377777777777775 0.3791666666666639 0.3805555555555528 0.3819444444444416 0.3833333333333305 0.3847222222222194 0.3861111111111083 0.3874999999999972 0.3888888888888861 0.3902777777777749 0.3916666666666638 0.3930555555555527 0.3944444444444416 0.3958333333333305 0.3972222222222194 0.3986111111111083 0.3999999999999971 0.401388888888886 0.4027777777777749 0.4041666666666638 0.4055555555555527 0.4069444444444416 0.4083333333333304 0.4097222222222193 0.4111111111111082 0.4124999999999971 0.413888888888886 0.4152777777777749 0.4166666666666637 0.4180555555555526 0.4194444444444415 0.4208333333333304 0.4222222222222193 0.4236111111111082 0.424999999999997 0.4263888888888859 0.4277777777777748 0.4291666666666637 0.4305555555555526 0.4319444444444415 0.4333333333333304 0.4347222222222192 0.4361111111111081 0.437499999999997 0.4388888888888859 0.4402777777777748 0.4416666666666637 0.4430555555555525 0.4444444444444414 0.4458333333333303 0.4472222222222192 0.4486111111111081 0.449999999999997 0.4513888888888858 0.4527777777777747 0.4541666666666636 0.4555555555555525 0.4569444444444414 0.4583333333333303 0.4597222222222191 0.461111111111108 0.4624999999999969 0.4638888888888858 0.4652777777777747 0.4666666666666636 0.4680555555555524 0.4694444444444413 0.4708333333333302 0.4722222222222191 0.473611111111108 0.4749999999999969 0.4763888888888858 0.4777777777777746 0.4791666666666635 0.4805555555555524 0.4819444444444413 0.4833333333333302 0.4847222222222191 0.4861111111111079 0.4874999999999968 0.4888888888888857 0.4902777777777746 0.4916666666666635 0.4930555555555524 0.4944444444444412 0.4958333333333301 0.497222222222219 0.4986111111111079 0.497222222222219 0.4958333333333301 0.4944444444444412 0.4930555555555524 0.4916666666666635 0.4902777777777746 0.4888888888888857 0.4874999999999968 0.4861111111111079 0.4847222222222191 0.4833333333333302 0.4819444444444413 0.4805555555555524 0.4791666666666635 0.4777777777777746 0.4763888888888858 0.4749999999999969 0.473611111111108 0.4722222222222191 0.4708333333333302 0.4694444444444413 0.4680555555555524 0.4666666666666636 0.4652777777777747 0.4638888888888858 0.4624999999999969 0.461111111111108 0.4597222222222191 0.4583333333333303 0.4569444444444414 0.4555555555555525 0.4541666666666636 0.4527777777777747 0.4513888888888858 0.449999999999997 0.4486111111111081 0.4472222222222192 0.4458333333333303 0.4444444444444414 0.4430555555555525 0.4416666666666637 0.4402777777777748 0.4388888888888859 0.437499999999997 0.4361111111111081 0.4347222222222192 0.4333333333333304 0.4319444444444415 0.4305555555555526 0.4291666666666637 0.4277777777777748 0.4263888888888859 0.424999999999997 0.4236111111111082 0.4222222222222193 0.4208333333333304 0.4194444444444415 0.4180555555555526 0.4166666666666637 0.4152777777777749 0.413888888888886 0.4124999999999971 0.4111111111111082 0.4097222222222193 0.4083333333333304 0.4069444444444416 0.4055555555555527 0.4041666666666638 0.4027777777777749 0.401388888888886 0.3999999999999971 0.3986111111111083 0.3972222222222194 0.3958333333333305 0.3944444444444416 0.3930555555555527 0.3916666666666638 0.3902777777777749 0.3888888888888861 0.3874999999999972 0.3861111111111083 0.3847222222222194 0.3833333333333305 0.3819444444444416 0.3805555555555528 0.3791666666666639 0.377777777777775 0.3763888888888861 0.3749999999999972 0.3736111111111083 0.3722222222222195 0.3708333333333306 0.3694444444444417 0.3680555555555528 0.3666666666666639 0.365277777777775 0.3638888888888862 0.3624999999999973 0.3611111111111084 0.3597222222222195 0.3583333333333306 0.3569444444444417 0.3555555555555528 0.354166666666664 0.3527777777777751 0.3513888888888862 0.3499999999999973 0.3486111111111084 0.3472222222222195 0.3458333333333307 0.3444444444444418 0.3430555555555529 0.341666666666664 0.3402777777777751 0.3388888888888862 0.3374999999999974 0.3361111111111085 0.3347222222222196 0.3333333333333307 0.3319444444444418 0.3305555555555529 0.3291666666666641 0.3277777777777752 0.3263888888888863 0.3249999999999974 0.3236111111111085 0.3222222222222196 0.3208333333333308 0.3194444444444419 0.318055555555553 0.3166666666666641 0.3152777777777752 0.3138888888888863 0.3124999999999974 0.3111111111111086 0.3097222222222197 0.3083333333333308 0.3069444444444419 0.305555555555553 0.3041666666666641 0.3027777777777753 0.3013888888888864 0.2999999999999975 0.2986111111111086 0.2972222222222197 0.2958333333333308 0.294444444444442 0.2930555555555531 0.2916666666666642 0.2902777777777753 0.2888888888888864 0.2874999999999975 0.2861111111111087 0.2847222222222198 0.2833333333333309 0.281944444444442 0.2805555555555531 0.2791666666666642 0.2777777777777753 0.2763888888888865 0.2749999999999976 0.2736111111111087 0.2722222222222198 0.2708333333333309 0.269444444444442 0.2680555555555532 0.2666666666666643 0.2652777777777754 0.2638888888888865 0.2624999999999976 0.2611111111111087 0.2597222222222199 0.258333333333331 0.2569444444444421 0.2555555555555532 0.2541666666666643 0.2527777777777754 0.2513888888888866 0.2499999999999977 0.2486111111111088 0.2472222222222199 0.245833333333331 0.2444444444444421 0.2430555555555532 0.2416666666666644 0.2402777777777755 0.2388888888888866 0.2374999999999977 0.2361111111111088 0.2347222222222199 0.2333333333333311 0.2319444444444422 0.2305555555555533 0.2291666666666644 0.2277777777777755 0.2263888888888866 0.2249999999999978 0.2236111111111089 0.22222222222222 0.2208333333333311 0.2194444444444422 0.2180555555555533 0.2166666666666645 0.2152777777777756 0.2138888888888867 0.2124999999999978 0.2111111111111089 0.20972222222222 0.2083333333333311 0.2069444444444423 0.2055555555555534 0.2041666666666645 0.2027777777777756 0.2013888888888867 0.1999999999999978 0.198611111111109 0.1972222222222201 0.1958333333333312 0.1944444444444423 0.1930555555555534 0.1916666666666645 0.1902777777777757 0.1888888888888868 0.1874999999999979 0.186111111111109 0.1847222222222201 0.1833333333333312 0.1819444444444424 0.1805555555555535 0.1791666666666646 0.1777777777777757 0.1763888888888868 0.1749999999999979 0.1736111111111091 0.1722222222222202 0.1708333333333313 0.1694444444444424 0.1680555555555535 0.1666666666666646 0.1652777777777757 0.1638888888888869 0.162499999999998 0.1611111111111091 0.1597222222222202 0.1583333333333313 0.1569444444444424 0.1555555555555536 0.1541666666666647 0.1527777777777758 0.1513888888888869 0.149999999999998 0.1486111111111091 0.1472222222222203 0.1458333333333314 0.1444444444444425 0.1430555555555536 0.1416666666666647 0.1402777777777758 0.138888888888887 0.1374999999999981 0.1361111111111092 0.1347222222222203 0.1333333333333314 0.1319444444444425 0.1305555555555536 0.1291666666666648 0.1277777777777759 0.126388888888887 0.1249999999999981 0.1236111111111092 0.1222222222222203 0.1208333333333315 0.1194444444444426 0.1180555555555537 0.1166666666666648 0.1152777777777759 0.113888888888887 0.1124999999999982 0.1111111111111093 0.1097222222222204 0.1083333333333315 0.1069444444444426 0.1055555555555537 0.1041666666666649 0.102777777777776 0.1013888888888871 0.0999999999999982 0.09861111111110932 0.09722222222222043 0.09583333333333155 0.09444444444444267 0.09305555555555378 0.0916666666666649 0.09027777777777601 0.08888888888888713 0.08749999999999825 0.08611111111110936 0.08472222222222048 0.08333333333333159 0.08194444444444271 0.08055555555555383 0.07916666666666494 0.07777777777777606 0.07638888888888717 0.07499999999999829 0.07361111111110941 0.07222222222222052 0.07083333333333164 0.06944444444444275 0.06805555555555387 0.06666666666666499 0.0652777777777761 0.06388888888888722 0.06249999999999833 0.06111111111110945 0.05972222222222057 0.05833333333333168 0.0569444444444428 0.05555555555555391 0.05416666666666503 0.05277777777777615 0.05138888888888726 0.04999999999999838 0.0486111111111095 0.04722222222222061 0.04583333333333173 0.04444444444444284 0.04305555555555396 0.04166666666666508 0.04027777777777619 0.03888888888888731 0.03749999999999842 0.03611111111110954 0.03472222222222066 0.03333333333333177 0.03194444444444289 0.030555555555554 0.02916666666666512 0.02777777777777624 0.02638888888888735 0.02499999999999847 0.02361111111110958 0.0222222222222207 0.02083333333333182 0.01944444444444293 0.01805555555555405 0.01666666666666516 0.01527777777777628 0.0138888888888874 0.01249999999999851 0.01111111111110963 0.009722222222220744 0.00833333333333186 0.006944444444442976 0.005555555555554093 0.004166666666665209 0.002777777777776325 0.001388888888887441 -1.443289932012704e-15 -0.001388888888890327 -0.002777777777779211 -0.004166666666668095 -0.005555555555556979 -0.006944444444445863 -0.008333333333334747 -0.009722222222223631 -0.01111111111111251 -0.0125000000000014 -0.01388888888889028 -0.01527777777777917 -0.01666666666666805 -0.01805555555555693 -0.01944444444444582 -0.0208333333333347 -0.02222222222222359 -0.02361111111111247 -0.02500000000000135 -0.02638888888889024 -0.02777777777777912 -0.02916666666666801 -0.03055555555555689 -0.03194444444444577 -0.03333333333333466 -0.03472222222222354 -0.03611111111111243 -0.03750000000000131 -0.03888888888889019 -0.04027777777777908 -0.04166666666666796 -0.04305555555555685 -0.04444444444444573 -0.04583333333333461 -0.0472222222222235 -0.04861111111111238 -0.05000000000000127 -0.05138888888889015 -0.05277777777777903 -0.05416666666666792 -0.0555555555555568 -0.05694444444444569 -0.05833333333333457 -0.05972222222222345 -0.06111111111111234 -0.06250000000000122 -0.06388888888889011 -0.06527777777777899 -0.06666666666666787 -0.06805555555555676 -0.06944444444444564 -0.07083333333333452 -0.07222222222222341 -0.07361111111111229 -0.07500000000000118 -0.07638888888889006 -0.07777777777777894 -0.07916666666666783 -0.08055555555555671 -0.0819444444444456 -0.08333333333333448 -0.08472222222222336 -0.08611111111111225 -0.08750000000000113 -0.08888888888889002 -0.0902777777777789 -0.09166666666666778 -0.09305555555555667 -0.09444444444444555 -0.09583333333333444 -0.09722222222222332 -0.0986111111111122 -0.1000000000000011 -0.10138888888889 -0.1027777777777789 -0.1041666666666677 -0.1055555555555566 -0.1069444444444455 -0.1083333333333344 -0.1097222222222233 -0.1111111111111122 -0.112500000000001 -0.1138888888888899 -0.1152777777777788 -0.1166666666666677 -0.1180555555555566 -0.1194444444444455 -0.1208333333333343 -0.1222222222222232 -0.1236111111111121 -0.125000000000001 -0.1263888888888899 -0.1277777777777788 -0.1291666666666677 -0.1305555555555565 -0.1319444444444454 -0.1333333333333343 -0.1347222222222232 -0.1361111111111121 -0.137500000000001 -0.1388888888888898 -0.1402777777777787 -0.1416666666666676 -0.1430555555555565 -0.1444444444444454 -0.1458333333333343 -0.1472222222222231 -0.148611111111112 -0.1500000000000009 -0.1513888888888898 -0.1527777777777787 -0.1541666666666676 -0.1555555555555564 -0.1569444444444453 -0.1583333333333342 -0.1597222222222231 -0.161111111111112 -0.1625000000000009 -0.1638888888888897 -0.1652777777777786 -0.1666666666666675 -0.1680555555555564 -0.1694444444444453 -0.1708333333333342 -0.1722222222222231 -0.1736111111111119 -0.1750000000000008 -0.1763888888888897 -0.1777777777777786 -0.1791666666666675 -0.1805555555555564 -0.1819444444444452 -0.1833333333333341 -0.184722222222223 -0.1861111111111119 -0.1875000000000008 -0.1888888888888897 -0.1902777777777785 -0.1916666666666674 -0.1930555555555563 -0.1944444444444452 -0.1958333333333341 -0.197222222222223 -0.1986111111111118 -0.2000000000000007 -0.2013888888888896 -0.2027777777777785 -0.2041666666666674 -0.2055555555555563 -0.2069444444444452 -0.208333333333334 -0.2097222222222229 -0.2111111111111118 -0.2125000000000007 -0.2138888888888896 -0.2152777777777785 -0.2166666666666673 -0.2180555555555562 -0.2194444444444451 -0.220833333333334 -0.2222222222222229 -0.2236111111111118 -0.2250000000000006 -0.2263888888888895 -0.2277777777777784 -0.2291666666666673 -0.2305555555555562 -0.2319444444444451 -0.2333333333333339 -0.2347222222222228 -0.2361111111111117 -0.2375000000000006 -0.2388888888888895 -0.2402777777777784 -0.2416666666666673 -0.2430555555555561 -0.244444444444445 -0.2458333333333339 -0.2472222222222228 -0.2486111111111117 -0.2500000000000006 -0.2513888888888894 -0.2527777777777783 -0.2541666666666672 -0.2555555555555561 -0.256944444444445 -0.2583333333333339 -0.2597222222222227 -0.2611111111111116 -0.2625000000000005 -0.2638888888888894 -0.2652777777777783 -0.2666666666666672 -0.268055555555556 -0.2694444444444449 -0.2708333333333338 -0.2722222222222227 -0.2736111111111116 -0.2750000000000005 -0.2763888888888894 -0.2777777777777782 -0.2791666666666671 -0.280555555555556 -0.2819444444444449 -0.2833333333333338 -0.2847222222222227 -0.2861111111111115 -0.2875000000000004 -0.2888888888888893 -0.2902777777777782 -0.2916666666666671 -0.293055555555556 -0.2944444444444448 -0.2958333333333337 -0.2972222222222226 -0.2986111111111115 -0.3000000000000004 -0.3013888888888893 -0.3027777777777781 -0.304166666666667 -0.3055555555555559 -0.3069444444444448 -0.3083333333333337 -0.3097222222222226 -0.3111111111111114 -0.3125000000000003 -0.3138888888888892 -0.3152777777777781 -0.316666666666667 -0.3180555555555559 -0.3194444444444448 -0.3208333333333336 -0.3222222222222225 -0.3236111111111114 -0.3250000000000003 -0.3263888888888892 -0.3277777777777781 -0.3291666666666669 -0.3305555555555558 -0.3319444444444447 -0.3333333333333336 -0.3347222222222225 -0.3361111111111114 -0.3375000000000002 -0.3388888888888891 -0.340277777777778 -0.3416666666666669 -0.3430555555555558 -0.3444444444444447 -0.3458333333333335 -0.3472222222222224 -0.3486111111111113 -0.3500000000000002 -0.3513888888888891 -0.352777777777778 -0.3541666666666669 -0.3555555555555557 -0.3569444444444446 -0.3583333333333335 -0.3597222222222224 -0.3611111111111113 -0.3625000000000002 -0.363888888888889 -0.3652777777777779 -0.3666666666666668 -0.3680555555555557 -0.3694444444444446 -0.3708333333333335 -0.3722222222222223 -0.3736111111111112 -0.3750000000000001 -0.376388888888889 -0.3777777777777779 -0.3791666666666668 -0.3805555555555556 -0.3819444444444445 -0.3833333333333334 -0.3847222222222223 -0.3861111111111112 -0.3875000000000001 -0.388888888888889 -0.3902777777777778 -0.3916666666666667 -0.3930555555555556 -0.3944444444444445 -0.3958333333333334 -0.3972222222222223 -0.3986111111111111 -0.4 -0.4013888888888889 -0.4027777777777778 -0.4041666666666667 -0.4055555555555556 -0.4069444444444444 -0.4083333333333333 -0.4097222222222222 -0.4111111111111111 -0.4125 -0.4138888888888889 -0.4152777777777777 -0.4166666666666666 -0.4180555555555555 -0.4194444444444444 -0.4208333333333333 -0.4222222222222222 -0.423611111111111 -0.4249999999999999 -0.4263888888888888 -0.4277777777777777 -0.4291666666666666 -0.4305555555555555 -0.4319444444444444 -0.4333333333333332 -0.4347222222222221 -0.436111111111111 -0.4374999999999999 -0.4388888888888888 -0.4402777777777777 -0.4416666666666665 -0.4430555555555554 -0.4444444444444444 -0.4458333333333332 -0.4472222222222221 -0.448611111111111 -0.4499999999999999 -0.4513888888888888 -0.4527777777777777 -0.4541666666666666 -0.4555555555555555 -0.4569444444444444 -0.4583333333333333 -0.4597222222222221 -0.461111111111111 -0.4624999999999999 -0.4638888888888888 -0.4652777777777777 -0.4666666666666666 -0.4680555555555555 -0.4694444444444444 -0.4708333333333333 -0.4722222222222222 -0.473611111111111 -0.4749999999999999 -0.4763888888888888 -0.4777777777777777 -0.4791666666666666 -0.4805555555555555 -0.4819444444444443 -0.4833333333333332 -0.4847222222222222 -0.486111111111111 -0.4874999999999999 -0.4888888888888888 -0.4902777777777777 -0.4916666666666666 -0.4930555555555555 -0.4944444444444444 -0.4958333333333332 -0.4972222222222221 -0.498611111111111 -0.4999999999999999 -0.5013888888888888 -0.4999999999999999 -0.498611111111111 -0.4972222222222221 -0.4958333333333332 -0.4944444444444444 -0.4930555555555555 -0.4916666666666666 -0.4902777777777777 -0.4888888888888888 -0.4874999999999999 -0.486111111111111 -0.4847222222222222 -0.4833333333333332 -0.4819444444444443 -0.4805555555555555 -0.4791666666666666 -0.4777777777777777 -0.4763888888888888 -0.4749999999999999 -0.473611111111111 -0.4722222222222222 -0.4708333333333333 -0.4694444444444444 -0.4680555555555555 -0.4666666666666666 -0.4652777777777777 -0.4638888888888888 -0.4624999999999999 -0.461111111111111 -0.4597222222222221 -0.4583333333333333 -0.4569444444444444 -0.4555555555555555 -0.4541666666666666 -0.4527777777777777 -0.4513888888888888 -0.4499999999999999 -0.448611111111111 -0.4472222222222221 -0.4458333333333332 -0.4444444444444444 -0.4430555555555554 -0.4416666666666665 -0.4402777777777777 -0.4388888888888888 -0.4374999999999999 -0.436111111111111 -0.4347222222222221 -0.4333333333333332 -0.4319444444444444 -0.4305555555555555 -0.4291666666666666 -0.4277777777777777 -0.4263888888888888 -0.4249999999999999 -0.423611111111111 -0.4222222222222222 -0.4208333333333333 -0.4194444444444444 -0.4180555555555555 -0.4166666666666666 -0.4152777777777777 -0.4138888888888889 -0.4125 -0.4111111111111111 -0.4097222222222222 -0.4083333333333333 -0.4069444444444444 -0.4055555555555556 -0.4041666666666667 -0.4027777777777778 -0.4013888888888889 -0.4 -0.3986111111111111 -0.3972222222222223 -0.3958333333333334 -0.3944444444444445 -0.3930555555555556 -0.3916666666666667 -0.3902777777777778 -0.388888888888889 -0.3875000000000001 -0.3861111111111112 -0.3847222222222223 -0.3833333333333334 -0.3819444444444445 -0.3805555555555556 -0.3791666666666668 -0.3777777777777779 -0.376388888888889 -0.3750000000000001 -0.3736111111111112 -0.3722222222222223 -0.3708333333333335 -0.3694444444444446 -0.3680555555555557 -0.3666666666666668 -0.3652777777777779 -0.363888888888889 -0.3625000000000002 -0.3611111111111113 -0.3597222222222224 -0.3583333333333335 -0.3569444444444446 -0.3555555555555557 -0.3541666666666669 -0.352777777777778 -0.3513888888888891 -0.3500000000000002 -0.3486111111111113 -0.3472222222222224 -0.3458333333333335 -0.3444444444444447 -0.3430555555555558 -0.3416666666666669 -0.340277777777778 -0.3388888888888891 -0.3375000000000002 -0.3361111111111114 -0.3347222222222225 -0.3333333333333336 -0.3319444444444447 -0.3305555555555558 -0.3291666666666669 -0.3277777777777781 -0.3263888888888892 -0.3250000000000003 -0.3236111111111114 -0.3222222222222225 -0.3208333333333336 -0.3194444444444448 -0.3180555555555559 -0.316666666666667 -0.3152777777777781 -0.3138888888888892 -0.3125000000000003 -0.3111111111111114 -0.3097222222222226 -0.3083333333333337 -0.3069444444444448 -0.3055555555555559 -0.304166666666667 -0.3027777777777781 -0.3013888888888893 -0.3000000000000004 -0.2986111111111115 -0.2972222222222226 -0.2958333333333337 -0.2944444444444448 -0.293055555555556 -0.2916666666666671 -0.2902777777777782 -0.2888888888888893 -0.2875000000000004 -0.2861111111111115 -0.2847222222222227 -0.2833333333333338 -0.2819444444444449 -0.280555555555556 -0.2791666666666671 -0.2777777777777782 -0.2763888888888894 -0.2750000000000005 -0.2736111111111116 -0.2722222222222227 -0.2708333333333338 -0.2694444444444449 -0.268055555555556 -0.2666666666666672 -0.2652777777777783 -0.2638888888888894 -0.2625000000000005 -0.2611111111111116 -0.2597222222222227 -0.2583333333333339 -0.256944444444445 -0.2555555555555561 -0.2541666666666672 -0.2527777777777783 -0.2513888888888894 -0.2500000000000006 -0.2486111111111117 -0.2472222222222228 -0.2458333333333339 -0.244444444444445 -0.2430555555555561 -0.2416666666666673 -0.2402777777777784 -0.2388888888888895 -0.2375000000000006 -0.2361111111111117 -0.2347222222222228 -0.2333333333333339 -0.2319444444444451 -0.2305555555555562 -0.2291666666666673 -0.2277777777777784 -0.2263888888888895 -0.2250000000000006 -0.2236111111111118 -0.2222222222222229 -0.220833333333334 -0.2194444444444451 -0.2180555555555562 -0.2166666666666673 -0.2152777777777785 -0.2138888888888896 -0.2125000000000007 -0.2111111111111118 -0.2097222222222229 -0.208333333333334 -0.2069444444444452 -0.2055555555555563 -0.2041666666666674 -0.2027777777777785 -0.2013888888888896 -0.2000000000000007 -0.1986111111111118 -0.197222222222223 -0.1958333333333341 -0.1944444444444452 -0.1930555555555563 -0.1916666666666674 -0.1902777777777785 -0.1888888888888897 -0.1875000000000008 -0.1861111111111119 -0.184722222222223 -0.1833333333333341 -0.1819444444444452 -0.1805555555555564 -0.1791666666666675 -0.1777777777777786 -0.1763888888888897 -0.1750000000000008 -0.1736111111111119 -0.1722222222222231 -0.1708333333333342 -0.1694444444444453 -0.1680555555555564 -0.1666666666666675 -0.1652777777777786 -0.1638888888888897 -0.1625000000000009 -0.161111111111112 -0.1597222222222231 -0.1583333333333342 -0.1569444444444453 -0.1555555555555564 -0.1541666666666676 -0.1527777777777787 -0.1513888888888898 -0.1500000000000009 -0.148611111111112 -0.1472222222222231 -0.1458333333333343 -0.1444444444444454 -0.1430555555555565 -0.1416666666666676 -0.1402777777777787 -0.1388888888888898 -0.137500000000001 -0.1361111111111121 -0.1347222222222232 -0.1333333333333343 -0.1319444444444454 -0.1305555555555565 -0.1291666666666677 -0.1277777777777788 -0.1263888888888899 -0.125000000000001 -0.1236111111111121 -0.1222222222222232 -0.1208333333333343 -0.1194444444444455 -0.1180555555555566 -0.1166666666666677 -0.1152777777777788 -0.1138888888888899 -0.112500000000001 -0.1111111111111122 -0.1097222222222233 -0.1083333333333344 -0.1069444444444455 -0.1055555555555566 -0.1041666666666677 -0.1027777777777789 -0.10138888888889 -0.1000000000000011 -0.0986111111111122 -0.09722222222222332 -0.09583333333333444 -0.09444444444444555 -0.09305555555555667 -0.09166666666666778 -0.0902777777777789 -0.08888888888889002 -0.08750000000000113 -0.08611111111111225 -0.08472222222222336 -0.08333333333333448 -0.0819444444444456 -0.08055555555555671 -0.07916666666666783 -0.07777777777777894 -0.07638888888889006 -0.07500000000000118 -0.07361111111111229 -0.07222222222222341 -0.07083333333333452 -0.06944444444444564 -0.06805555555555676 -0.06666666666666787 -0.06527777777777899 -0.06388888888889011 -0.06250000000000122 -0.06111111111111234 -0.05972222222222345 -0.05833333333333457 -0.05694444444444569 -0.0555555555555568 -0.05416666666666792 -0.05277777777777903 -0.05138888888889015 -0.05000000000000127 -0.04861111111111238 -0.0472222222222235 -0.04583333333333461 -0.04444444444444573 -0.04305555555555685 -0.04166666666666796 -0.04027777777777908 -0.03888888888889019 -0.03750000000000131 -0.03611111111111243 -0.03472222222222354 -0.03333333333333466 -0.03194444444444577 -0.03055555555555689 -0.02916666666666801 -0.02777777777777912 -0.02638888888889024 -0.02500000000000135 -0.02361111111111247 -0.02222222222222359 -0.0208333333333347 -0.01944444444444582 -0.01805555555555693 -0.01666666666666805 -0.01527777777777917 -0.01388888888889028 -0.0125000000000014 -0.01111111111111251 -0.009722222222223631 -0.008333333333334747 -0.006944444444445863 -0.005555555555556979 -0.004166666666668095 -0.002777777777779211 -0.001388888888890327 -1.443289932012704e-15 0.001388888888887441 0.002777777777776325 0.004166666666665209 0.005555555555554093 0.006944444444442976 0.00833333333333186 0.009722222222220744 0.01111111111110963 0.01249999999999851 0.0138888888888874 0.01527777777777628 0.01666666666666516 0.01805555555555405 0.01944444444444293 0.02083333333333182 0.0222222222222207 0.02361111111110958 0.02499999999999847 0.02638888888888735 0.02777777777777624 0.02916666666666512 0.030555555555554 0.03194444444444289 0.03333333333333177 0.03472222222222066 0.03611111111110954 0.03749999999999842 0.03888888888888731 0.04027777777777619 0.04166666666666508 0.04305555555555396 0.04444444444444284 0.04583333333333173 0.04722222222222061 0.0486111111111095 0.04999999999999838 0.05138888888888726 0.05277777777777615 0.05416666666666503 0.05555555555555391 0.0569444444444428 0.05833333333333168 0.05972222222222057 0.06111111111110945 0.06249999999999833 0.06388888888888722 0.0652777777777761 0.06666666666666499 0.06805555555555387 0.06944444444444275 0.07083333333333164 0.07222222222222052 0.07361111111110941 0.07499999999999829 0.07638888888888717 0.07777777777777606 0.07916666666666494 0.08055555555555383 0.08194444444444271 0.08333333333333159 0.08472222222222048 0.08611111111110936 0.08749999999999825 0.08888888888888713 0.09027777777777601 0.0916666666666649 0.09305555555555378 0.09444444444444267 0.09583333333333155 0.09722222222222043 0.09861111111110932 0.0999999999999982 0.1013888888888871 0.102777777777776 0.1041666666666649 0.1055555555555537 0.1069444444444426 0.1083333333333315 0.1097222222222204 0.1111111111111093 0.1124999999999982 0.113888888888887 0.1152777777777759 0.1166666666666648 0.1180555555555537 0.1194444444444426 0.1208333333333315 0.1222222222222203 0.1236111111111092 0.1249999999999981 0.126388888888887 0.1277777777777759 0.1291666666666648 0.1305555555555536 0.1319444444444425 0.1333333333333314 0.1347222222222203 0.1361111111111092 0.1374999999999981 0.138888888888887 0.1402777777777758 0.1416666666666647 0.1430555555555536 0.1444444444444425 0.1458333333333314 0.1472222222222203 0.1486111111111091 0.149999999999998 0.1513888888888869 0.1527777777777758 0.1541666666666647 0.1555555555555536 0.1569444444444424 0.1583333333333313 0.1597222222222202 0.1611111111111091 0.162499999999998 0.1638888888888869 0.1652777777777757 0.1666666666666646 0.1680555555555535 0.1694444444444424 0.1708333333333313 0.1722222222222202 0.1736111111111091 0.1749999999999979 0.1763888888888868 0.1777777777777757 0.1791666666666646 0.1805555555555535 0.1819444444444424 0.1833333333333312 0.1847222222222201 0.186111111111109 0.1874999999999979 0.1888888888888868 0.1902777777777757 0.1916666666666645 0.1930555555555534 0.1944444444444423 0.1958333333333312 0.1972222222222201 0.198611111111109 0.1999999999999978 0.2013888888888867 0.2027777777777756 0.2041666666666645 0.2055555555555534 0.2069444444444423 0.2083333333333311 0.20972222222222 0.2111111111111089 0.2124999999999978 0.2138888888888867 0.2152777777777756 0.2166666666666645 0.2180555555555533 0.2194444444444422 0.2208333333333311 0.22222222222222 0.2236111111111089 0.2249999999999978 0.2263888888888866 0.2277777777777755 0.2291666666666644 0.2305555555555533 0.2319444444444422 0.2333333333333311 0.2347222222222199 0.2361111111111088 0.2374999999999977 0.2388888888888866 0.2402777777777755 0.2416666666666644 0.2430555555555532 0.2444444444444421 0.245833333333331 0.2472222222222199 0.2486111111111088 0.2499999999999977 0.2513888888888866 0.2527777777777754 0.2541666666666643 0.2555555555555532 0.2569444444444421 0.258333333333331 0.2597222222222199 0.2611111111111087 0.2624999999999976 0.2638888888888865 0.2652777777777754 0.2666666666666643 0.2680555555555532 0.269444444444442 0.2708333333333309 0.2722222222222198 0.2736111111111087 0.2749999999999976 0.2763888888888865 0.2777777777777753 0.2791666666666642 0.2805555555555531 0.281944444444442 0.2833333333333309 0.2847222222222198 0.2861111111111087 0.2874999999999975 0.2888888888888864 0.2902777777777753 0.2916666666666642 0.2930555555555531 0.294444444444442 0.2958333333333308 0.2972222222222197 0.2986111111111086 0.2999999999999975 0.3013888888888864 0.3027777777777753 0.3041666666666641 0.305555555555553 0.3069444444444419 0.3083333333333308 0.3097222222222197 0.3111111111111086 0.3124999999999974 0.3138888888888863 0.3152777777777752 0.3166666666666641 0.318055555555553 0.3194444444444419 0.3208333333333308 0.3222222222222196 0.3236111111111085 0.3249999999999974 0.3263888888888863 0.3277777777777752 0.3291666666666641 0.3305555555555529 0.3319444444444418 0.3333333333333307 0.3347222222222196 0.3361111111111085 0.3374999999999974 0.3388888888888862 0.3402777777777751 0.341666666666664 0.3430555555555529 0.3444444444444418 0.3458333333333307 0.3472222222222195 0.3486111111111084 0.3499999999999973 0.3513888888888862 0.3527777777777751 0.354166666666664 0.3555555555555528 0.3569444444444417 0.3583333333333306 0.3597222222222195 0.3611111111111084 0.3624999999999973 0.3638888888888862 0.365277777777775 0.3666666666666639 0.3680555555555528 0.3694444444444417 0.3708333333333306 0.3722222222222195 0.3736111111111083 0.3749999999999972 0.3763888888888861 0.377777777777775 0.3791666666666639 0.3805555555555528 0.3819444444444416 0.3833333333333305 0.3847222222222194 0.3861111111111083 0.3874999999999972 0.3888888888888861 0.3902777777777749 0.3916666666666638 0.3930555555555527 0.3944444444444416 0.3958333333333305 0.3972222222222194 0.3986111111111083 0.3999999999999971 0.401388888888886 0.4027777777777749 0.4041666666666638 0.4055555555555527 0.4069444444444416 0.4083333333333304 0.4097222222222193 0.4111111111111082 0.4124999999999971 0.413888888888886 0.4152777777777749 0.4166666666666637 0.4180555555555526 0.4194444444444415 0.4208333333333304 0.4222222222222193 0.4236111111111082 0.424999999999997 0.4263888888888859 0.4277777777777748 0.4291666666666637 0.4305555555555526 0.4319444444444415 0.4333333333333304 0.4347222222222192 0.4361111111111081 0.437499999999997 0.4388888888888859 0.4402777777777748 0.4416666666666637 0.4430555555555525 0.4444444444444414 0.4458333333333303 0.4472222222222192 0.4486111111111081 0.449999999999997 0.4513888888888858 0.4527777777777747 0.4541666666666636 0.4555555555555525 0.4569444444444414 0.4583333333333303 0.4597222222222191 0.461111111111108 0.4624999999999969 0.4638888888888858 0.4652777777777747 0.4666666666666636 0.4680555555555524 0.4694444444444413 0.4708333333333302 0.4722222222222191 0.473611111111108 0.4749999999999969 0.4763888888888858 0.4777777777777746 0.4791666666666635 0.4805555555555524 0.4819444444444413 0.4833333333333302 0.4847222222222191 0.4861111111111079 0.4874999999999968 0.4888888888888857 0.4902777777777746 0.4916666666666635 0.4930555555555524 0.4944444444444412 0.4958333333333301 0.497222222222219 0.4986111111111079 0.497222222222219 0.4958333333333301 0.4944444444444412 0.4930555555555524 0.4916666666666635 0.4902777777777746 0.4888888888888857 0.4874999999999968 0.4861111111111079 0.4847222222222191 0.4833333333333302 0.4819444444444413 0.4805555555555524 0.4791666666666635 0.4777777777777746 0.4763888888888858 0.4749999999999969 0.473611111111108 0.4722222222222191 0.4708333333333302 0.4694444444444413 0.4680555555555524 0.4666666666666636 0.4652777777777747 0.4638888888888858 0.4624999999999969 0.461111111111108 0.4597222222222191 0.4583333333333303 0.4569444444444414 0.4555555555555525 0.4541666666666636 0.4527777777777747 0.4513888888888858 0.449999999999997 0.4486111111111081 0.4472222222222192 0.4458333333333303 0.4444444444444414 0.4430555555555525 0.4416666666666637 0.4402777777777748 0.4388888888888859 0.437499999999997 0.4361111111111081 0.4347222222222192 0.4333333333333304 0.4319444444444415 0.4305555555555526 0.4291666666666637 0.4277777777777748 0.4263888888888859 0.424999999999997 0.4236111111111082 0.4222222222222193 0.4208333333333304 0.4194444444444415 0.4180555555555526 0.4166666666666637 0.4152777777777749 0.413888888888886 0.4124999999999971 0.4111111111111082 0.4097222222222193 0.4083333333333304 0.4069444444444416 0.4055555555555527 0.4041666666666638 0.4027777777777749 0.401388888888886 0.3999999999999971 0.3986111111111083 0.3972222222222194 0.3958333333333305 0.3944444444444416 0.3930555555555527 0.3916666666666638 0.3902777777777749 0.3888888888888861 0.3874999999999972 0.3861111111111083 0.3847222222222194 0.3833333333333305 0.3819444444444416 0.3805555555555528 0.3791666666666639 0.377777777777775 0.3763888888888861 0.3749999999999972 0.3736111111111083 0.3722222222222195 0.3708333333333306 0.3694444444444417 0.3680555555555528 0.3666666666666639 0.365277777777775 0.3638888888888862 0.3624999999999973 0.3611111111111084 0.3597222222222195 0.3583333333333306 0.3569444444444417 0.3555555555555528 0.354166666666664 0.3527777777777751 0.3513888888888862 0.3499999999999973 0.3486111111111084 0.3472222222222195 0.3458333333333307 0.3444444444444418 0.3430555555555529 0.341666666666664 0.3402777777777751 0.3388888888888862 0.3374999999999974 0.3361111111111085 0.3347222222222196 0.3333333333333307 0.3319444444444418 0.3305555555555529 0.3291666666666641 0.3277777777777752 0.3263888888888863 0.3249999999999974 0.3236111111111085 0.3222222222222196 0.3208333333333308 0.3194444444444419 0.318055555555553 0.3166666666666641 0.3152777777777752 0.3138888888888863 0.3124999999999974 0.3111111111111086 0.3097222222222197 0.3083333333333308 0.3069444444444419 0.305555555555553 0.3041666666666641 0.3027777777777753 0.3013888888888864 0.2999999999999975 0.2986111111111086 0.2972222222222197 0.2958333333333308 0.294444444444442 0.2930555555555531 0.2916666666666642 0.2902777777777753 0.2888888888888864 0.2874999999999975 0.2861111111111087 0.2847222222222198 0.2833333333333309 0.281944444444442 0.2805555555555531 0.2791666666666642 0.2777777777777753 0.2763888888888865 0.2749999999999976 0.2736111111111087 0.2722222222222198 0.2708333333333309 0.269444444444442 0.2680555555555532 0.2666666666666643 0.2652777777777754 0.2638888888888865 0.2624999999999976 0.2611111111111087 0.2597222222222199 0.258333333333331 0.2569444444444421 0.2555555555555532 0.2541666666666643 0.2527777777777754 0.2513888888888866 0.2499999999999977 0.2486111111111088 0.2472222222222199 0.245833333333331 0.2444444444444421 0.2430555555555532 0.2416666666666644 0.2402777777777755 0.2388888888888866 0.2374999999999977 0.2361111111111088 0.2347222222222199 0.2333333333333311 0.2319444444444422 0.2305555555555533 0.2291666666666644 0.2277777777777755 0.2263888888888866 0.2249999999999978 0.2236111111111089 0.22222222222222 0.2208333333333311 0.2194444444444422 0.2180555555555533 0.2166666666666645 0.2152777777777756 0.2138888888888867 0.2124999999999978 0.2111111111111089 0.20972222222222 0.2083333333333311 0.2069444444444423 0.2055555555555534 0.2041666666666645 0.2027777777777756 0.2013888888888867 0.1999999999999978 0.198611111111109 0.1972222222222201 0.1958333333333312 0.1944444444444423 0.1930555555555534 0.1916666666666645 0.1902777777777757 0.1888888888888868 0.1874999999999979 0.186111111111109 0.1847222222222201 0.1833333333333312 0.1819444444444424 0.1805555555555535 0.1791666666666646 0.1777777777777757 0.1763888888888868 0.1749999999999979 0.1736111111111091 0.1722222222222202 0.1708333333333313 0.1694444444444424 0.1680555555555535 0.1666666666666646 0.1652777777777757 0.1638888888888869 0.162499999999998 0.1611111111111091 0.1597222222222202 0.1583333333333313 0.1569444444444424 0.1555555555555536 0.1541666666666647 0.1527777777777758 0.1513888888888869 0.149999999999998 0.1486111111111091 0.1472222222222203 0.1458333333333314 0.1444444444444425 0.1430555555555536 0.1416666666666647 0.1402777777777758 0.138888888888887 0.1374999999999981 0.1361111111111092 0.1347222222222203 0.1333333333333314 0.1319444444444425 0.1305555555555536 0.1291666666666648 0.1277777777777759 0.126388888888887 0.1249999999999981 0.1236111111111092 0.1222222222222203 0.1208333333333315 0.1194444444444426 0.1180555555555537 0.1166666666666648 0.1152777777777759 0.113888888888887 0.1124999999999982 0.1111111111111093 0.1097222222222204 0.1083333333333315 0.1069444444444426 0.1055555555555537 0.1041666666666649 0.102777777777776 0.1013888888888871 0.0999999999999982 0.09861111111110932 0.09722222222222043 0.09583333333333155 0.09444444444444267 0.09305555555555378 0.0916666666666649 0.09027777777777601 0.08888888888888713 0.08749999999999825 0.08611111111110936 0.08472222222222048 0.08333333333333159 0.08194444444444271 0.08055555555555383 0.07916666666666494 0.07777777777777606 0.07638888888888717 0.07499999999999829 0.07361111111110941 0.07222222222222052 0.07083333333333164 0.06944444444444275 0.06805555555555387 0.06666666666666499 0.0652777777777761 0.06388888888888722 0.06249999999999833 0.06111111111110945 0.05972222222222057 0.05833333333333168 0.0569444444444428 0.05555555555555391 0.05416666666666503 0.05277777777777615 0.05138888888888726 0.04999999999999838 0.0486111111111095 0.04722222222222061 0.04583333333333173 0.04444444444444284 0.04305555555555396 0.04166666666666508 0.04027777777777619 0.03888888888888731 0.03749999999999842 0.03611111111110954 0.03472222222222066 0.03333333333333177 0.03194444444444289 0.030555555555554 0.02916666666666512 0.02777777777777624 0.02638888888888735 0.02499999999999847 0.02361111111110958 0.0222222222222207 0.02083333333333182 0.01944444444444293 0.01805555555555405 0.01666666666666516 0.01527777777777628 0.0138888888888874 0.01249999999999851 0.01111111111110963 0.009722222222220744 0.00833333333333186 0.006944444444442976 0.005555555555554093 0.004166666666665209 0.002777777777776325 0.001388888888887441 -1.443289932012704e-15 -0.001388888888890327 -0.002777777777779211 -0.004166666666668095 -0.005555555555556979 -0.006944444444445863 -0.008333333333334747 -0.009722222222223631 -0.01111111111111251 -0.0125000000000014 -0.01388888888889028 -0.01527777777777917 -0.01666666666666805 -0.01805555555555693 -0.01944444444444582 -0.0208333333333347 -0.02222222222222359 -0.02361111111111247 -0.02500000000000135 -0.02638888888889024 -0.02777777777777912 -0.02916666666666801 -0.03055555555555689 -0.03194444444444577 -0.03333333333333466 -0.03472222222222354 -0.03611111111111243 -0.03750000000000131 -0.03888888888889019 -0.04027777777777908 -0.04166666666666796 -0.04305555555555685 -0.04444444444444573 -0.04583333333333461 -0.0472222222222235 -0.04861111111111238 -0.05000000000000127 -0.05138888888889015 -0.05277777777777903 -0.05416666666666792 -0.0555555555555568 -0.05694444444444569 -0.05833333333333457 -0.05972222222222345 -0.06111111111111234 -0.06250000000000122 -0.06388888888889011 -0.06527777777777899 -0.06666666666666787 -0.06805555555555676 -0.06944444444444564 -0.07083333333333452 -0.07222222222222341 -0.07361111111111229 -0.07500000000000118 -0.07638888888889006 -0.07777777777777894 -0.07916666666666783 -0.08055555555555671 -0.0819444444444456 -0.08333333333333448 -0.08472222222222336 -0.08611111111111225 -0.08750000000000113 -0.08888888888889002 -0.0902777777777789 -0.09166666666666778 -0.09305555555555667 -0.09444444444444555 -0.09583333333333444 -0.09722222222222332 -0.0986111111111122 -0.1000000000000011 -0.10138888888889 -0.1027777777777789 -0.1041666666666677 -0.1055555555555566 -0.1069444444444455 -0.1083333333333344 -0.1097222222222233 -0.1111111111111122 -0.112500000000001 -0.1138888888888899 -0.1152777777777788 -0.1166666666666677 -0.1180555555555566 -0.1194444444444455 -0.1208333333333343 -0.1222222222222232 -0.1236111111111121 -0.125000000000001 -0.1263888888888899 -0.1277777777777788 -0.1291666666666677 -0.1305555555555565 -0.1319444444444454 -0.1333333333333343 -0.1347222222222232 -0.1361111111111121 -0.137500000000001 -0.1388888888888898 -0.1402777777777787 -0.1416666666666676 -0.1430555555555565 -0.1444444444444454 -0.1458333333333343 -0.1472222222222231 -0.148611111111112 -0.1500000000000009 -0.1513888888888898 -0.1527777777777787 -0.1541666666666676 -0.1555555555555564 -0.1569444444444453 -0.1583333333333342 -0.1597222222222231 -0.161111111111112 -0.1625000000000009 -0.1638888888888897 -0.1652777777777786 -0.1666666666666675 -0.1680555555555564 -0.1694444444444453 -0.1708333333333342 -0.1722222222222231 -0.1736111111111119 -0.1750000000000008 -0.1763888888888897 -0.1777777777777786 -0.1791666666666675 -0.1805555555555564 -0.1819444444444452 -0.1833333333333341 -0.184722222222223 -0.1861111111111119 -0.1875000000000008 -0.1888888888888897 -0.1902777777777785 -0.1916666666666674 -0.1930555555555563 -0.1944444444444452 -0.1958333333333341 -0.197222222222223 -0.1986111111111118 -0.2000000000000007 -0.2013888888888896 -0.2027777777777785 -0.2041666666666674 -0.2055555555555563 -0.2069444444444452 -0.208333333333334 -0.2097222222222229 -0.2111111111111118 -0.2125000000000007 -0.2138888888888896 -0.2152777777777785 -0.2166666666666673 -0.2180555555555562 -0.2194444444444451 -0.220833333333334 -0.2222222222222229 -0.2236111111111118 -0.2250000000000006 -0.2263888888888895 -0.2277777777777784 -0.2291666666666673 -0.2305555555555562 -0.2319444444444451 -0.2333333333333339 -0.2347222222222228 -0.2361111111111117 -0.2375000000000006 -0.2388888888888895 -0.2402777777777784 -0.2416666666666673 -0.2430555555555561 -0.244444444444445 -0.2458333333333339 -0.2472222222222228 -0.2486111111111117 -0.2500000000000006 -0.2513888888888894 -0.2527777777777783 -0.2541666666666672 -0.2555555555555561 -0.256944444444445 -0.2583333333333339 -0.2597222222222227 -0.2611111111111116 -0.2625000000000005 -0.2638888888888894 -0.2652777777777783 -0.2666666666666672 -0.268055555555556 -0.2694444444444449 -0.2708333333333338 -0.2722222222222227 -0.2736111111111116 -0.2750000000000005 -0.2763888888888894 -0.2777777777777782 -0.2791666666666671 -0.280555555555556 -0.2819444444444449 -0.2833333333333338 -0.2847222222222227 -0.2861111111111115 -0.2875000000000004 -0.2888888888888893 -0.2902777777777782 -0.2916666666666671 -0.293055555555556 -0.2944444444444448 -0.2958333333333337 -0.2972222222222226 -0.2986111111111115 -0.3000000000000004 -0.3013888888888893 -0.3027777777777781 -0.304166666666667 -0.3055555555555559 -0.3069444444444448 -0.3083333333333337 -0.3097222222222226 -0.3111111111111114 -0.3125000000000003 -0.3138888888888892 -0.3152777777777781 -0.316666666666667 -0.3180555555555559 -0.3194444444444448 -0.3208333333333336 -0.3222222222222225 -0.3236111111111114 -0.3250000000000003 -0.3263888888888892 -0.3277777777777781 -0.3291666666666669 -0.3305555555555558 -0.3319444444444447 -0.3333333333333336 -0.3347222222222225 -0.3361111111111114 -0.3375000000000002 -0.3388888888888891 -0.340277777777778 -0.3416666666666669 -0.3430555555555558 -0.3444444444444447 -0.3458333333333335 -0.3472222222222224 -0.3486111111111113 -0.3500000000000002 -0.3513888888888891 -0.352777777777778 -0.3541666666666669 -0.3555555555555557 -0.3569444444444446 -0.3583333333333335 -0.3597222222222224 -0.3611111111111113 -0.3625000000000002 -0.363888888888889 -0.3652777777777779 -0.3666666666666668 -0.3680555555555557 -0.3694444444444446 -0.3708333333333335 -0.3722222222222223 -0.3736111111111112 -0.3750000000000001 -0.376388888888889 -0.3777777777777779 -0.3791666666666668 -0.3805555555555556 -0.3819444444444445 -0.3833333333333334 -0.3847222222222223 -0.3861111111111112 -0.3875000000000001 -0.388888888888889 -0.3902777777777778 -0.3916666666666667 -0.3930555555555556 -0.3944444444444445 -0.3958333333333334 -0.3972222222222223 -0.3986111111111111 -0.4 -0.4013888888888889 -0.4027777777777778 -0.4041666666666667 -0.4055555555555556 -0.4069444444444444 -0.4083333333333333 -0.4097222222222222 -0.4111111111111111 -0.4125 -0.4138888888888889 -0.4152777777777777 -0.4166666666666666 -0.4180555555555555 -0.4194444444444444 -0.4208333333333333 -0.4222222222222222 -0.423611111111111 -0.4249999999999999 -0.4263888888888888 -0.4277777777777777 -0.4291666666666666 -0.4305555555555555 -0.4319444444444444 -0.4333333333333332 -0.4347222222222221 -0.436111111111111 -0.4374999999999999 -0.4388888888888888 -0.4402777777777777 -0.4416666666666665 -0.4430555555555554 -0.4444444444444444 -0.4458333333333332 -0.4472222222222221 -0.448611111111111 -0.4499999999999999 -0.4513888888888888 -0.4527777777777777 -0.4541666666666666 -0.4555555555555555 -0.4569444444444444 -0.4583333333333333 -0.4597222222222221 -0.461111111111111 -0.4624999999999999 -0.4638888888888888 -0.4652777777777777 -0.4666666666666666 -0.4680555555555555 -0.4694444444444444 -0.4708333333333333 -0.4722222222222222 -0.473611111111111 -0.4749999999999999 -0.4763888888888888 -0.4777777777777777 -0.4791666666666666 -0.4805555555555555 -0.4819444444444443 -0.4833333333333332 -0.4847222222222222 -0.486111111111111 -0.4874999999999999 -0.4888888888888888 -0.4902777777777777 -0.4916666666666666 -0.4930555555555555 -0.4944444444444444 -0.4958333333333332 -0.4972222222222221 -0.498611111111111 -0.4999999999999999 -0.5013888888888888 -0.4999999999999999 -0.498611111111111 -0.4972222222222221 -0.4958333333333332 -0.4944444444444444 -0.4930555555555555 -0.4916666666666666 -0.4902777777777777 -0.4888888888888888 -0.4874999999999999 -0.486111111111111 -0.4847222222222222 -0.4833333333333332 -0.4819444444444443 -0.4805555555555555 -0.4791666666666666 -0.4777777777777777 -0.4763888888888888 -0.4749999999999999 -0.473611111111111 -0.4722222222222222 -0.4708333333333333 -0.4694444444444444 -0.4680555555555555 -0.4666666666666666 -0.4652777777777777 -0.4638888888888888 -0.4624999999999999 -0.461111111111111 -0.4597222222222221 -0.4583333333333333 -0.4569444444444444 -0.4555555555555555 -0.4541666666666666 -0.4527777777777777 -0.4513888888888888 -0.4499999999999999 -0.448611111111111 -0.4472222222222221 -0.4458333333333332 -0.4444444444444444 -0.4430555555555554 -0.4416666666666665 -0.4402777777777777 -0.4388888888888888 -0.4374999999999999 -0.436111111111111 -0.4347222222222221 -0.4333333333333332 -0.4319444444444444 -0.4305555555555555 -0.4291666666666666 -0.4277777777777777 -0.4263888888888888 -0.4249999999999999 -0.423611111111111 -0.4222222222222222 -0.4208333333333333 -0.4194444444444444 -0.4180555555555555 -0.4166666666666666 -0.4152777777777777 -0.4138888888888889 -0.4125 -0.4111111111111111 -0.4097222222222222 -0.4083333333333333 -0.4069444444444444 -0.4055555555555556 -0.4041666666666667 -0.4027777777777778 -0.4013888888888889 -0.4 -0.3986111111111111 -0.3972222222222223 -0.3958333333333334 -0.3944444444444445 -0.3930555555555556 -0.3916666666666667 -0.3902777777777778 -0.388888888888889 -0.3875000000000001 -0.3861111111111112 -0.3847222222222223 -0.3833333333333334 -0.3819444444444445 -0.3805555555555556 -0.3791666666666668 -0.3777777777777779 -0.376388888888889 -0.3750000000000001 -0.3736111111111112 -0.3722222222222223 -0.3708333333333335 -0.3694444444444446 -0.3680555555555557 -0.3666666666666668 -0.3652777777777779 -0.363888888888889 -0.3625000000000002 -0.3611111111111113 -0.3597222222222224 -0.3583333333333335 -0.3569444444444446 -0.3555555555555557 -0.3541666666666669 -0.352777777777778 -0.3513888888888891 -0.3500000000000002 -0.3486111111111113 -0.3472222222222224 -0.3458333333333335 -0.3444444444444447 -0.3430555555555558 -0.3416666666666669 -0.340277777777778 -0.3388888888888891 -0.3375000000000002 -0.3361111111111114 -0.3347222222222225 -0.3333333333333336 -0.3319444444444447 -0.3305555555555558 -0.3291666666666669 -0.3277777777777781 -0.3263888888888892 -0.3250000000000003 -0.3236111111111114 -0.3222222222222225 -0.3208333333333336 -0.3194444444444448 -0.3180555555555559 -0.316666666666667 -0.3152777777777781 -0.3138888888888892 -0.3125000000000003 -0.3111111111111114 -0.3097222222222226 -0.3083333333333337 -0.3069444444444448 -0.3055555555555559 -0.304166666666667 -0.3027777777777781 -0.3013888888888893 -0.3000000000000004 -0.2986111111111115 -0.2972222222222226 -0.2958333333333337 -0.2944444444444448 -0.293055555555556 -0.2916666666666671 -0.2902777777777782 -0.2888888888888893 -0.2875000000000004 -0.2861111111111115 -0.2847222222222227 -0.2833333333333338 -0.2819444444444449 -0.280555555555556 -0.2791666666666671 -0.2777777777777782 -0.2763888888888894 -0.2750000000000005 -0.2736111111111116 -0.2722222222222227 -0.2708333333333338 -0.2694444444444449 -0.268055555555556 -0.2666666666666672 -0.2652777777777783 -0.2638888888888894 -0.2625000000000005 -0.2611111111111116 -0.2597222222222227 -0.2583333333333339 -0.256944444444445 -0.2555555555555561 -0.2541666666666672 -0.2527777777777783 -0.2513888888888894 -0.2500000000000006 -0.2486111111111117 -0.2472222222222228 -0.2458333333333339 -0.244444444444445 -0.2430555555555561 -0.2416666666666673 -0.2402777777777784 -0.2388888888888895 -0.2375000000000006 -0.2361111111111117 -0.2347222222222228 -0.2333333333333339 -0.2319444444444451 -0.2305555555555562 -0.2291666666666673 -0.2277777777777784 -0.2263888888888895 -0.2250000000000006 -0.2236111111111118 -0.2222222222222229 -0.220833333333334 -0.2194444444444451 -0.2180555555555562 -0.2166666666666673 -0.2152777777777785 -0.2138888888888896 -0.2125000000000007 -0.2111111111111118 -0.2097222222222229 -0.208333333333334 -0.2069444444444452 -0.2055555555555563 -0.2041666666666674 -0.2027777777777785 -0.2013888888888896 -0.2000000000000007 -0.1986111111111118 -0.197222222222223 -0.1958333333333341 -0.1944444444444452 -0.1930555555555563 -0.1916666666666674 -0.1902777777777785 -0.1888888888888897 -0.1875000000000008 -0.1861111111111119 -0.184722222222223 -0.1833333333333341 -0.1819444444444452 -0.1805555555555564 -0.1791666666666675 -0.1777777777777786 -0.1763888888888897 -0.1750000000000008 -0.1736111111111119 -0.1722222222222231 -0.1708333333333342 -0.1694444444444453 -0.1680555555555564 -0.1666666666666675 -0.1652777777777786 -0.1638888888888897 -0.1625000000000009 -0.161111111111112 -0.1597222222222231 -0.1583333333333342 -0.1569444444444453 -0.1555555555555564 -0.1541666666666676 -0.1527777777777787 -0.1513888888888898 -0.1500000000000009 -0.148611111111112 -0.1472222222222231 -0.1458333333333343 -0.1444444444444454 -0.1430555555555565 -0.1416666666666676 -0.1402777777777787 -0.1388888888888898 -0.137500000000001 -0.1361111111111121 -0.1347222222222232 -0.1333333333333343 -0.1319444444444454 -0.1305555555555565 -0.1291666666666677 -0.1277777777777788 -0.1263888888888899 -0.125000000000001 -0.1236111111111121 -0.1222222222222232 -0.1208333333333343 -0.1194444444444455 -0.1180555555555566 -0.1166666666666677 -0.1152777777777788 -0.1138888888888899 -0.112500000000001 -0.1111111111111122 -0.1097222222222233 -0.1083333333333344 -0.1069444444444455 -0.1055555555555566 -0.1041666666666677 -0.1027777777777789 -0.10138888888889 -0.1000000000000011 -0.0986111111111122 -0.09722222222222332 -0.09583333333333444 -0.09444444444444555 -0.09305555555555667 -0.09166666666666778 -0.0902777777777789 -0.08888888888889002 -0.08750000000000113 -0.08611111111111225 -0.08472222222222336 -0.08333333333333448 -0.0819444444444456 -0.08055555555555671 -0.07916666666666783 -0.07777777777777894 -0.07638888888889006 -0.07500000000000118 -0.07361111111111229 -0.07222222222222341 -0.07083333333333452 -0.06944444444444564 -0.06805555555555676 -0.06666666666666787 -0.06527777777777899 -0.06388888888889011 -0.06250000000000122 -0.06111111111111234 -0.05972222222222345 -0.05833333333333457 -0.05694444444444569 -0.0555555555555568 -0.05416666666666792 -0.05277777777777903 -0.05138888888889015 -0.05000000000000127 -0.04861111111111238 -0.0472222222222235 -0.04583333333333461 -0.04444444444444573 -0.04305555555555685 -0.04166666666666796 -0.04027777777777908 -0.03888888888889019 -0.03750000000000131 -0.03611111111111243 -0.03472222222222354 -0.03333333333333466 -0.03194444444444577 -0.03055555555555689 -0.02916666666666801 -0.02777777777777912 -0.02638888888889024 -0.02500000000000135 -0.02361111111111247 -0.02222222222222359 -0.0208333333333347 -0.01944444444444582 -0.01805555555555693 -0.01666666666666805 -0.01527777777777917 -0.01388888888889028 -0.0125000000000014 -0.01111111111111251 -0.009722222222223631 -0.008333333333334747 -0.006944444444445863 -0.005555555555556979 -0.004166666666668095 -0.002777777777779211 -0.001388888888890327 -1.443289932012704e-15 0.001388888888887441 0.002777777777776325 0.004166666666665209 0.005555555555554093 0.006944444444442976 0.00833333333333186 0.009722222222220744 0.01111111111110963 0.01249999999999851 0.0138888888888874 0.01527777777777628 0.01666666666666516 0.01805555555555405 0.01944444444444293 0.02083333333333182 0.0222222222222207 0.02361111111110958 0.02499999999999847 0.02638888888888735 0.02777777777777624 0.02916666666666512 0.030555555555554 0.03194444444444289 0.03333333333333177 0.03472222222222066 0.03611111111110954 0.03749999999999842 0.03888888888888731 0.04027777777777619 0.04166666666666508 0.04305555555555396 0.04444444444444284 0.04583333333333173 0.04722222222222061 0.0486111111111095 0.04999999999999838 0.05138888888888726 0.05277777777777615 0.05416666666666503 0.05555555555555391 0.0569444444444428 0.05833333333333168 0.05972222222222057 0.06111111111110945 0.06249999999999833 0.06388888888888722 0.0652777777777761 0.06666666666666499 0.06805555555555387 0.06944444444444275 0.07083333333333164 0.07222222222222052 0.07361111111110941 0.07499999999999829 0.07638888888888717 0.07777777777777606 0.07916666666666494 0.08055555555555383 0.08194444444444271 0.08333333333333159 0.08472222222222048 0.08611111111110936 0.08749999999999825 0.08888888888888713 0.09027777777777601 0.0916666666666649 0.09305555555555378 0.09444444444444267 0.09583333333333155 0.09722222222222043 0.09861111111110932 0.0999999999999982 0.1013888888888871 0.102777777777776 0.1041666666666649 0.1055555555555537 0.1069444444444426 0.1083333333333315 0.1097222222222204 0.1111111111111093 0.1124999999999982 0.113888888888887 0.1152777777777759 0.1166666666666648 0.1180555555555537 0.1194444444444426 0.1208333333333315 0.1222222222222203 0.1236111111111092 0.1249999999999981 0.126388888888887 0.1277777777777759 0.1291666666666648 0.1305555555555536 0.1319444444444425 0.1333333333333314 0.1347222222222203 0.1361111111111092 0.1374999999999981 0.138888888888887 0.1402777777777758 0.1416666666666647 0.1430555555555536 0.1444444444444425 0.1458333333333314 0.1472222222222203 0.1486111111111091 0.149999999999998 0.1513888888888869 0.1527777777777758 0.1541666666666647 0.1555555555555536 0.1569444444444424 0.1583333333333313 0.1597222222222202 0.1611111111111091 0.162499999999998 0.1638888888888869 0.1652777777777757 0.1666666666666646 0.1680555555555535 0.1694444444444424 0.1708333333333313 0.1722222222222202 0.1736111111111091 0.1749999999999979 0.1763888888888868 0.1777777777777757 0.1791666666666646 0.1805555555555535 0.1819444444444424 0.1833333333333312 0.1847222222222201 0.186111111111109 0.1874999999999979 0.1888888888888868 0.1902777777777757 0.1916666666666645 0.1930555555555534 0.1944444444444423 0.1958333333333312 0.1972222222222201 0.198611111111109 0.1999999999999978 0.2013888888888867 0.2027777777777756 0.2041666666666645 0.2055555555555534 0.2069444444444423 0.2083333333333311 0.20972222222222 0.2111111111111089 0.2124999999999978 0.2138888888888867 0.2152777777777756 0.2166666666666645 0.2180555555555533 0.2194444444444422 0.2208333333333311 0.22222222222222 0.2236111111111089 0.2249999999999978 0.2263888888888866 0.2277777777777755 0.2291666666666644 0.2305555555555533 0.2319444444444422 0.2333333333333311 0.2347222222222199 0.2361111111111088 0.2374999999999977 0.2388888888888866 0.2402777777777755 0.2416666666666644 0.2430555555555532 0.2444444444444421 0.245833333333331 0.2472222222222199 0.2486111111111088 0.2499999999999977 0.2513888888888866 0.2527777777777754 0.2541666666666643 0.2555555555555532 0.2569444444444421 0.258333333333331 0.2597222222222199 0.2611111111111087 0.2624999999999976 0.2638888888888865 0.2652777777777754 0.2666666666666643 0.2680555555555532 0.269444444444442 0.2708333333333309 0.2722222222222198 0.2736111111111087 0.2749999999999976 0.2763888888888865 0.2777777777777753 0.2791666666666642 0.2805555555555531 0.281944444444442 0.2833333333333309 0.2847222222222198 0.2861111111111087 0.2874999999999975 0.2888888888888864 0.2902777777777753 0.2916666666666642 0.2930555555555531 0.294444444444442 0.2958333333333308 0.2972222222222197 0.2986111111111086 0.2999999999999975 0.3013888888888864 0.3027777777777753 0.3041666666666641 0.305555555555553 0.3069444444444419 0.3083333333333308 0.3097222222222197 0.3111111111111086 0.3124999999999974 0.3138888888888863 0.3152777777777752 0.3166666666666641 0.318055555555553 0.3194444444444419 0.3208333333333308 0.3222222222222196 0.3236111111111085 0.3249999999999974 0.3263888888888863 0.3277777777777752 0.3291666666666641 0.3305555555555529 0.3319444444444418 0.3333333333333307 0.3347222222222196 0.3361111111111085 0.3374999999999974 0.3388888888888862 0.3402777777777751 0.341666666666664 0.3430555555555529 0.3444444444444418 0.3458333333333307 0.3472222222222195 0.3486111111111084 0.3499999999999973 0.3513888888888862 0.3527777777777751 0.354166666666664 0.3555555555555528 0.3569444444444417 0.3583333333333306 0.3597222222222195 0.3611111111111084 0.3624999999999973 0.3638888888888862 0.365277777777775 0.3666666666666639 0.3680555555555528 0.3694444444444417 0.3708333333333306 0.3722222222222195 0.3736111111111083 0.3749999999999972 0.3763888888888861 0.377777777777775 0.3791666666666639 0.3805555555555528 0.3819444444444416 0.3833333333333305 0.3847222222222194 0.3861111111111083 0.3874999999999972 0.3888888888888861 0.3902777777777749 0.3916666666666638 0.3930555555555527 0.3944444444444416 0.3958333333333305 0.3972222222222194 0.3986111111111083 0.3999999999999971 0.401388888888886 0.4027777777777749 0.4041666666666638 0.4055555555555527 0.4069444444444416 0.4083333333333304 0.4097222222222193 0.4111111111111082 0.4124999999999971 0.413888888888886 0.4152777777777749 0.4166666666666637 0.4180555555555526 0.4194444444444415 0.4208333333333304 0.4222222222222193 0.4236111111111082 0.424999999999997 0.4263888888888859 0.4277777777777748 0.4291666666666637 0.4305555555555526 0.4319444444444415 0.4333333333333304 0.4347222222222192 0.4361111111111081 0.437499999999997 0.4388888888888859 0.4402777777777748 0.4416666666666637 0.4430555555555525 0.4444444444444414 0.4458333333333303 0.4472222222222192 0.4486111111111081 0.449999999999997 0.4513888888888858 0.4527777777777747 0.4541666666666636 0.4555555555555525 0.4569444444444414 0.4583333333333303 0.4597222222222191 0.461111111111108 0.4624999999999969 0.4638888888888858 0.4652777777777747 0.4666666666666636 0.4680555555555524 0.4694444444444413 0.4708333333333302 0.4722222222222191 0.473611111111108 0.4749999999999969 0.4763888888888858 0.4777777777777746 0.4791666666666635 0.4805555555555524 0.4819444444444413 0.4833333333333302 0.4847222222222191 0.4861111111111079 0.4874999999999968 0.4888888888888857 0.4902777777777746 0.4916666666666635 0.4930555555555524 0.4944444444444412 0.4958333333333301 0.497222222222219 0.4986111111111079 0.497222222222219 0.4958333333333301 0.4944444444444412 0.4930555555555524 0.4916666666666635 0.4902777777777746 0.4888888888888857 0.4874999999999968 0.4861111111111079 0.4847222222222191 0.4833333333333302 0.4819444444444413 0.4805555555555524 0.4791666666666635 0.4777777777777746 0.4763888888888858 0.4749999999999969 0.473611111111108 0.4722222222222191 0.4708333333333302 0.4694444444444413 0.4680555555555524 0.4666666666666636 0.4652777777777747 0.4638888888888858 0.4624999999999969 0.461111111111108 0.4597222222222191 0.4583333333333303 0.4569444444444414 0.4555555555555525 0.4541666666666636 0.4527777777777747 0.4513888888888858 0.449999999999997 0.4486111111111081 0.4472222222222192 0.4458333333333303 0.4444444444444414 0.4430555555555525 0.4416666666666637 0.4402777777777748 0.4388888888888859 0.437499999999997 0.4361111111111081 0.4347222222222192 0.4333333333333304 0.4319444444444415 0.4305555555555526 0.4291666666666637 0.4277777777777748 0.4263888888888859 0.424999999999997 0.4236111111111082 0.4222222222222193 0.4208333333333304 0.4194444444444415 0.4180555555555526 0.4166666666666637 0.4152777777777749 0.413888888888886 0.4124999999999971 0.4111111111111082 0.4097222222222193 0.4083333333333304 0.4069444444444416 0.4055555555555527 0.4041666666666638 0.4027777777777749 0.401388888888886 0.3999999999999971 0.3986111111111083 0.3972222222222194 0.3958333333333305 0.3944444444444416 0.3930555555555527 0.3916666666666638 0.3902777777777749 0.3888888888888861 0.3874999999999972 0.3861111111111083 0.3847222222222194 0.3833333333333305 0.3819444444444416 0.3805555555555528 0.3791666666666639 0.377777777777775 0.3763888888888861 0.3749999999999972 0.3736111111111083 0.3722222222222195 0.3708333333333306 0.3694444444444417 0.3680555555555528 0.3666666666666639 0.365277777777775 0.3638888888888862 0.3624999999999973 0.3611111111111084 0.3597222222222195 0.3583333333333306 0.3569444444444417 0.3555555555555528 0.354166666666664 0.3527777777777751 0.3513888888888862 0.3499999999999973 0.3486111111111084 0.3472222222222195 0.3458333333333307 0.3444444444444418 0.3430555555555529 0.341666666666664 0.3402777777777751 0.3388888888888862 0.3374999999999974 0.3361111111111085 0.3347222222222196 0.3333333333333307 0.3319444444444418 0.3305555555555529 0.3291666666666641 0.3277777777777752 0.3263888888888863 0.3249999999999974 0.3236111111111085 0.3222222222222196 0.3208333333333308 0.3194444444444419 0.318055555555553 0.3166666666666641 0.3152777777777752 0.3138888888888863 0.3124999999999974 0.3111111111111086 0.3097222222222197 0.3083333333333308 0.3069444444444419 0.305555555555553 0.3041666666666641 0.3027777777777753 0.3013888888888864 0.2999999999999975 0.2986111111111086 0.2972222222222197 0.2958333333333308 0.294444444444442 0.2930555555555531 0.2916666666666642 0.2902777777777753 0.2888888888888864 0.2874999999999975 0.2861111111111087 0.2847222222222198 0.2833333333333309 0.281944444444442 0.2805555555555531 0.2791666666666642 0.2777777777777753 0.2763888888888865 0.2749999999999976 0.2736111111111087 0.2722222222222198 0.2708333333333309 0.269444444444442 0.2680555555555532 0.2666666666666643 0.2652777777777754 0.2638888888888865 0.2624999999999976 0.2611111111111087 0.2597222222222199 0.258333333333331 0.2569444444444421 0.2555555555555532 0.2541666666666643 0.2527777777777754 0.2513888888888866 0.2499999999999977 0.2486111111111088 0.2472222222222199 0.245833333333331 0.2444444444444421 0.2430555555555532 0.2416666666666644 0.2402777777777755 0.2388888888888866 0.2374999999999977 0.2361111111111088 0.2347222222222199 0.2333333333333311 0.2319444444444422 0.2305555555555533 0.2291666666666644 0.2277777777777755 0.2263888888888866 0.2249999999999978 0.2236111111111089 0.22222222222222 0.2208333333333311 0.2194444444444422 0.2180555555555533 0.2166666666666645 0.2152777777777756 0.2138888888888867 0.2124999999999978 0.2111111111111089 0.20972222222222 0.2083333333333311 0.2069444444444423 0.2055555555555534 0.2041666666666645 0.2027777777777756 0.2013888888888867 0.1999999999999978 0.198611111111109 0.1972222222222201 0.1958333333333312 0.1944444444444423 0.1930555555555534 0.1916666666666645 0.1902777777777757 0.1888888888888868 0.1874999999999979 0.186111111111109 0.1847222222222201 0.1833333333333312 0.1819444444444424 0.1805555555555535 0.1791666666666646 0.1777777777777757 0.1763888888888868 0.1749999999999979 0.1736111111111091 0.1722222222222202 0.1708333333333313 0.1694444444444424 0.1680555555555535 0.1666666666666646 0.1652777777777757 0.1638888888888869 0.162499999999998 0.1611111111111091 0.1597222222222202 0.1583333333333313 0.1569444444444424 0.1555555555555536 0.1541666666666647 0.1527777777777758 0.1513888888888869 0.149999999999998 0.1486111111111091 0.1472222222222203 0.1458333333333314 0.1444444444444425 0.1430555555555536 0.1416666666666647 0.1402777777777758 0.138888888888887 0.1374999999999981 0.1361111111111092 0.1347222222222203 0.1333333333333314 0.1319444444444425 0.1305555555555536 0.1291666666666648 0.1277777777777759 0.126388888888887 0.1249999999999981 0.1236111111111092 0.1222222222222203 0.1208333333333315 0.1194444444444426 0.1180555555555537 0.1166666666666648 0.1152777777777759 0.113888888888887 0.1124999999999982 0.1111111111111093 0.1097222222222204 0.1083333333333315 0.1069444444444426 0.1055555555555537 0.1041666666666649 0.102777777777776 0.1013888888888871 0.0999999999999982 0.09861111111110932 0.09722222222222043 0.09583333333333155 0.09444444444444267 0.09305555555555378 0.0916666666666649 0.09027777777777601 0.08888888888888713 0.08749999999999825 0.08611111111110936 0.08472222222222048 0.08333333333333159 0.08194444444444271 0.08055555555555383 0.07916666666666494 0.07777777777777606 0.07638888888888717 0.07499999999999829 0.07361111111110941 0.07222222222222052 0.07083333333333164 0.06944444444444275 0.06805555555555387 0.06666666666666499 0.0652777777777761 0.06388888888888722 0.06249999999999833 0.06111111111110945 0.05972222222222057 0.05833333333333168 0.0569444444444428 0.05555555555555391 0.05416666666666503 0.05277777777777615 0.05138888888888726 0.04999999999999838 0.0486111111111095 0.04722222222222061 0.04583333333333173 0.04444444444444284 0.04305555555555396 0.04166666666666508 0.04027777777777619 0.03888888888888731 0.03749999999999842 0.03611111111110954 0.03472222222222066 0.03333333333333177 0.03194444444444289 0.030555555555554 0.02916666666666512 0.02777777777777624 0.02638888888888735 0.02499999999999847 0.02361111111110958 0.0222222222222207 0.02083333333333182 0.01944444444444293 0.01805555555555405 0.01666666666666516 0.01527777777777628 0.0138888888888874 0.01249999999999851 0.01111111111110963 0.009722222222220744 0.00833333333333186 0.006944444444442976 0.005555555555554093 0.004166666666665209 0.002777777777776325 0.001388888888887441 -1.443289932012704e-15 -0.001388888888890327 -0.002777777777779211 -0.004166666666668095 -0.005555555555556979 -0.006944444444445863 -0.008333333333334747 -0.009722222222223631 -0.01111111111111251 -0.0125000000000014 -0.01388888888889028 -0.01527777777777917 -0.01666666666666805 -0.01805555555555693 -0.01944444444444582 -0.0208333333333347 -0.02222222222222359 -0.02361111111111247 -0.02500000000000135 -0.02638888888889024 -0.02777777777777912 -0.02916666666666801 -0.03055555555555689 -0.03194444444444577 -0.03333333333333466 -0.03472222222222354 -0.03611111111111243 -0.03750000000000131 -0.03888888888889019 -0.04027777777777908 -0.04166666666666796 -0.04305555555555685 -0.04444444444444573 -0.04583333333333461 -0.0472222222222235 -0.04861111111111238 -0.05000000000000127 -0.05138888888889015 -0.05277777777777903 -0.05416666666666792 -0.0555555555555568 -0.05694444444444569 -0.05833333333333457 -0.05972222222222345 -0.06111111111111234 -0.06250000000000122 -0.06388888888889011 -0.06527777777777899 -0.06666666666666787 -0.06805555555555676 -0.06944444444444564 -0.07083333333333452 -0.07222222222222341 -0.07361111111111229 -0.07500000000000118 -0.07638888888889006 -0.07777777777777894 -0.07916666666666783 -0.08055555555555671 -0.0819444444444456 -0.08333333333333448 -0.08472222222222336 -0.08611111111111225 -0.08750000000000113 -0.08888888888889002 -0.0902777777777789 -0.09166666666666778 -0.09305555555555667 -0.09444444444444555 -0.09583333333333444 -0.09722222222222332 -0.0986111111111122 -0.1000000000000011 -0.10138888888889 -0.1027777777777789 -0.1041666666666677 -0.1055555555555566 -0.1069444444444455 -0.1083333333333344 -0.1097222222222233 -0.1111111111111122 -0.112500000000001 -0.1138888888888899 -0.1152777777777788 -0.1166666666666677 -0.1180555555555566 -0.1194444444444455 -0.1208333333333343 -0.1222222222222232 -0.1236111111111121 -0.125000000000001 -0.1263888888888899 -0.1277777777777788 -0.1291666666666677 -0.1305555555555565 -0.1319444444444454 -0.1333333333333343 -0.1347222222222232 -0.1361111111111121 -0.137500000000001 -0.1388888888888898 -0.1402777777777787 -0.1416666666666676 -0.1430555555555565 -0.1444444444444454 -0.1458333333333343 -0.1472222222222231 -0.148611111111112 -0.1500000000000009 -0.1513888888888898 -0.1527777777777787 -0.1541666666666676 -0.1555555555555564 -0.1569444444444453 -0.1583333333333342 -0.1597222222222231 -0.161111111111112 -0.1625000000000009 -0.1638888888888897 -0.1652777777777786 -0.1666666666666675 -0.1680555555555564 -0.1694444444444453 -0.1708333333333342 -0.1722222222222231 -0.1736111111111119 -0.1750000000000008 -0.1763888888888897 -0.1777777777777786 -0.1791666666666675 -0.1805555555555564 -0.1819444444444452 -0.1833333333333341 -0.184722222222223 -0.1861111111111119 -0.1875000000000008 -0.1888888888888897 -0.1902777777777785 -0.1916666666666674 -0.1930555555555563 -0.1944444444444452 -0.1958333333333341 -0.197222222222223 -0.1986111111111118 -0.2000000000000007 -0.2013888888888896 -0.2027777777777785 -0.2041666666666674 -0.2055555555555563 -0.2069444444444452 -0.208333333333334 -0.2097222222222229 -0.2111111111111118 -0.2125000000000007 -0.2138888888888896 -0.2152777777777785 -0.2166666666666673 -0.2180555555555562 -0.2194444444444451 -0.220833333333334 -0.2222222222222229 -0.2236111111111118 -0.2250000000000006 -0.2263888888888895 -0.2277777777777784 -0.2291666666666673 -0.2305555555555562 -0.2319444444444451 -0.2333333333333339 -0.2347222222222228 -0.2361111111111117 -0.2375000000000006 -0.2388888888888895 -0.2402777777777784 -0.2416666666666673 -0.2430555555555561 -0.244444444444445 -0.2458333333333339 -0.2472222222222228 -0.2486111111111117 -0.2500000000000006 -0.2513888888888894 -0.2527777777777783 -0.2541666666666672 -0.2555555555555561 -0.256944444444445 -0.2583333333333339 -0.2597222222222227 -0.2611111111111116 -0.2625000000000005 -0.2638888888888894 -0.2652777777777783 -0.2666666666666672 -0.268055555555556 -0.2694444444444449 -0.2708333333333338 -0.2722222222222227 -0.2736111111111116 -0.2750000000000005 -0.2763888888888894 -0.2777777777777782 -0.2791666666666671 -0.280555555555556 -0.2819444444444449 -0.2833333333333338 -0.2847222222222227 -0.2861111111111115 -0.2875000000000004 -0.2888888888888893 -0.2902777777777782 -0.2916666666666671 -0.293055555555556 -0.2944444444444448 -0.2958333333333337 -0.2972222222222226 -0.2986111111111115 -0.3000000000000004 -0.3013888888888893 -0.3027777777777781 -0.304166666666667 -0.3055555555555559 -0.3069444444444448 -0.3083333333333337 -0.3097222222222226 -0.3111111111111114 -0.3125000000000003 -0.3138888888888892 -0.3152777777777781 -0.316666666666667 -0.3180555555555559 -0.3194444444444448 -0.3208333333333336 -0.3222222222222225 -0.3236111111111114 -0.3250000000000003 -0.3263888888888892 -0.3277777777777781 -0.3291666666666669 -0.3305555555555558 -0.3319444444444447 -0.3333333333333336 -0.3347222222222225 -0.3361111111111114 -0.3375000000000002 -0.3388888888888891 -0.340277777777778 -0.3416666666666669 -0.3430555555555558 -0.3444444444444447 -0.3458333333333335 -0.3472222222222224 -0.3486111111111113 -0.3500000000000002 -0.3513888888888891 -0.352777777777778 -0.3541666666666669 -0.3555555555555557 -0.3569444444444446 -0.3583333333333335 -0.3597222222222224 -0.3611111111111113 -0.3625000000000002 -0.363888888888889 -0.3652777777777779 -0.3666666666666668 -0.3680555555555557 -0.3694444444444446 -0.3708333333333335 -0.3722222222222223 -0.3736111111111112 -0.3750000000000001 -0.376388888888889 -0.3777777777777779 -0.3791666666666668 -0.3805555555555556 -0.3819444444444445 -0.3833333333333334 -0.3847222222222223 -0.3861111111111112 -0.3875000000000001 -0.388888888888889 -0.3902777777777778 -0.3916666666666667 -0.3930555555555556 -0.3944444444444445 -0.3958333333333334 -0.3972222222222223 -0.3986111111111111 -0.4 -0.4013888888888889 -0.4027777777777778 -0.4041666666666667 -0.4055555555555556 -0.4069444444444444 -0.4083333333333333 -0.4097222222222222 -0.4111111111111111 -0.4125 -0.4138888888888889 -0.4152777777777777 -0.4166666666666666 -0.4180555555555555 -0.4194444444444444 -0.4208333333333333 -0.4222222222222222 -0.423611111111111 -0.4249999999999999 -0.4263888888888888 -0.4277777777777777 -0.4291666666666666 -0.4305555555555555 -0.4319444444444444 -0.4333333333333332 -0.4347222222222221 -0.436111111111111 -0.4374999999999999 -0.4388888888888888 -0.4402777777777777 -0.4416666666666665 -0.4430555555555554 -0.4444444444444444 -0.4458333333333332 -0.4472222222222221 -0.448611111111111 -0.4499999999999999 -0.4513888888888888 -0.4527777777777777 -0.4541666666666666 -0.4555555555555555 -0.4569444444444444 -0.4583333333333333 -0.4597222222222221 -0.461111111111111 -0.4624999999999999 -0.4638888888888888 -0.4652777777777777 -0.4666666666666666 -0.4680555555555555 -0.4694444444444444 -0.4708333333333333 -0.4722222222222222 -0.473611111111111 -0.4749999999999999 -0.4763888888888888 -0.4777777777777777 -0.4791666666666666 -0.4805555555555555 -0.4819444444444443 -0.4833333333333332 -0.4847222222222222 -0.486111111111111 -0.4874999999999999 -0.4888888888888888 -0.4902777777777777 -0.4916666666666666 -0.4930555555555555 -0.4944444444444444 -0.4958333333333332 -0.4972222222222221 -0.498611111111111 -0.4999999999999999 -0.5013888888888888 -0.4999999999999999 -0.498611111111111 -0.4972222222222221 -0.4958333333333332 -0.4944444444444444 -0.4930555555555555 -0.4916666666666666 -0.4902777777777777 -0.4888888888888888 -0.4874999999999999 -0.486111111111111 -0.4847222222222222 -0.4833333333333332 -0.4819444444444443 -0.4805555555555555 -0.4791666666666666 -0.4777777777777777 -0.4763888888888888 -0.4749999999999999 -0.473611111111111 -0.4722222222222222 -0.4708333333333333 -0.4694444444444444 -0.4680555555555555 -0.4666666666666666 -0.4652777777777777 -0.4638888888888888 -0.4624999999999999 -0.461111111111111 -0.4597222222222221 -0.4583333333333333 -0.4569444444444444 -0.4555555555555555 -0.4541666666666666 -0.4527777777777777 -0.4513888888888888 -0.4499999999999999 -0.448611111111111 -0.4472222222222221 -0.4458333333333332 -0.4444444444444444 -0.4430555555555554 -0.4416666666666665 -0.4402777777777777 -0.4388888888888888 -0.4374999999999999 -0.436111111111111 -0.4347222222222221 -0.4333333333333332 -0.4319444444444444 -0.4305555555555555 -0.4291666666666666 -0.4277777777777777 -0.4263888888888888 -0.4249999999999999 -0.423611111111111 -0.4222222222222222 -0.4208333333333333 -0.4194444444444444 -0.4180555555555555 -0.4166666666666666 -0.4152777777777777 -0.4138888888888889 -0.4125 -0.4111111111111111 -0.4097222222222222 -0.4083333333333333 -0.4069444444444444 -0.4055555555555556 -0.4041666666666667 -0.4027777777777778 -0.4013888888888889 -0.4 -0.3986111111111111 -0.3972222222222223 -0.3958333333333334 -0.3944444444444445 -0.3930555555555556 -0.3916666666666667 -0.3902777777777778 -0.388888888888889 -0.3875000000000001 -0.3861111111111112 -0.3847222222222223 -0.3833333333333334 -0.3819444444444445 -0.3805555555555556 -0.3791666666666668 -0.3777777777777779 -0.376388888888889 -0.3750000000000001 -0.3736111111111112 -0.3722222222222223 -0.3708333333333335 -0.3694444444444446 -0.3680555555555557 -0.3666666666666668 -0.3652777777777779 -0.363888888888889 -0.3625000000000002 -0.3611111111111113 -0.3597222222222224 -0.3583333333333335 -0.3569444444444446 -0.3555555555555557 -0.3541666666666669 -0.352777777777778 -0.3513888888888891 -0.3500000000000002 -0.3486111111111113 -0.3472222222222224 -0.3458333333333335 -0.3444444444444447 -0.3430555555555558 -0.3416666666666669 -0.340277777777778 -0.3388888888888891 -0.3375000000000002 -0.3361111111111114 -0.3347222222222225 -0.3333333333333336 -0.3319444444444447 -0.3305555555555558 -0.3291666666666669 -0.3277777777777781 -0.3263888888888892 -0.3250000000000003 -0.3236111111111114 -0.3222222222222225 -0.3208333333333336 -0.3194444444444448 -0.3180555555555559 -0.316666666666667 -0.3152777777777781 -0.3138888888888892 -0.3125000000000003 -0.3111111111111114 -0.3097222222222226 -0.3083333333333337 -0.3069444444444448 -0.3055555555555559 -0.304166666666667 -0.3027777777777781 -0.3013888888888893 -0.3000000000000004 -0.2986111111111115 -0.2972222222222226 -0.2958333333333337 -0.2944444444444448 -0.293055555555556 -0.2916666666666671 -0.2902777777777782 -0.2888888888888893 -0.2875000000000004 -0.2861111111111115 -0.2847222222222227 -0.2833333333333338 -0.2819444444444449 -0.280555555555556 -0.2791666666666671 -0.2777777777777782 -0.2763888888888894 -0.2750000000000005 -0.2736111111111116 -0.2722222222222227 -0.2708333333333338 -0.2694444444444449 -0.268055555555556 -0.2666666666666672 -0.2652777777777783 -0.2638888888888894 -0.2625000000000005 -0.2611111111111116 -0.2597222222222227 -0.2583333333333339 -0.256944444444445 -0.2555555555555561 -0.2541666666666672 -0.2527777777777783 -0.2513888888888894 -0.2500000000000006 -0.2486111111111117 -0.2472222222222228 -0.2458333333333339 -0.244444444444445 -0.2430555555555561 -0.2416666666666673 -0.2402777777777784 -0.2388888888888895 -0.2375000000000006 -0.2361111111111117 -0.2347222222222228 -0.2333333333333339 -0.2319444444444451 -0.2305555555555562 -0.2291666666666673 -0.2277777777777784 -0.2263888888888895 -0.2250000000000006 -0.2236111111111118 -0.2222222222222229 -0.220833333333334 -0.2194444444444451 -0.2180555555555562 -0.2166666666666673 -0.2152777777777785 -0.2138888888888896 -0.2125000000000007 -0.2111111111111118 -0.2097222222222229 -0.208333333333334 -0.2069444444444452 -0.2055555555555563 -0.2041666666666674 -0.2027777777777785 -0.2013888888888896 -0.2000000000000007 -0.1986111111111118 -0.197222222222223 -0.1958333333333341 -0.1944444444444452 -0.1930555555555563 -0.1916666666666674 -0.1902777777777785 -0.1888888888888897 -0.1875000000000008 -0.1861111111111119 -0.184722222222223 -0.1833333333333341 -0.1819444444444452 -0.1805555555555564 -0.1791666666666675 -0.1777777777777786 -0.1763888888888897 -0.1750000000000008 -0.1736111111111119 -0.1722222222222231 -0.1708333333333342 -0.1694444444444453 -0.1680555555555564 -0.1666666666666675 -0.1652777777777786 -0.1638888888888897 -0.1625000000000009 -0.161111111111112 -0.1597222222222231 -0.1583333333333342 -0.1569444444444453 -0.1555555555555564 -0.1541666666666676 -0.1527777777777787 -0.1513888888888898 -0.1500000000000009 -0.148611111111112 -0.1472222222222231 -0.1458333333333343 -0.1444444444444454 -0.1430555555555565 -0.1416666666666676 -0.1402777777777787 -0.1388888888888898 -0.137500000000001 -0.1361111111111121 -0.1347222222222232 -0.1333333333333343 -0.1319444444444454 -0.1305555555555565 -0.1291666666666677 -0.1277777777777788 -0.1263888888888899 -0.125000000000001 -0.1236111111111121 -0.1222222222222232 -0.1208333333333343 -0.1194444444444455 -0.1180555555555566 -0.1166666666666677 -0.1152777777777788 -0.1138888888888899 -0.112500000000001 -0.1111111111111122 -0.1097222222222233 -0.1083333333333344 -0.1069444444444455 -0.1055555555555566 -0.1041666666666677 -0.1027777777777789 -0.10138888888889 -0.1000000000000011 -0.0986111111111122 -0.09722222222222332 -0.09583333333333444 -0.09444444444444555 -0.09305555555555667 -0.09166666666666778 -0.0902777777777789 -0.08888888888889002 -0.08750000000000113 -0.08611111111111225 -0.08472222222222336 -0.08333333333333448 -0.0819444444444456 -0.08055555555555671 -0.07916666666666783 -0.07777777777777894 -0.07638888888889006 -0.07500000000000118 -0.07361111111111229 -0.07222222222222341 -0.07083333333333452 -0.06944444444444564 -0.06805555555555676 -0.06666666666666787 -0.06527777777777899 -0.06388888888889011 -0.06250000000000122 -0.06111111111111234 -0.05972222222222345 -0.05833333333333457 -0.05694444444444569 -0.0555555555555568 -0.05416666666666792 -0.05277777777777903 -0.05138888888889015 -0.05000000000000127 -0.04861111111111238 -0.0472222222222235 -0.04583333333333461 -0.04444444444444573 -0.04305555555555685 -0.04166666666666796 -0.04027777777777908 -0.03888888888889019 -0.03750000000000131 -0.03611111111111243 -0.03472222222222354 -0.03333333333333466 -0.03194444444444577 -0.03055555555555689 -0.02916666666666801 -0.02777777777777912 -0.02638888888889024 -0.02500000000000135 -0.02361111111111247 -0.02222222222222359 -0.0208333333333347 -0.01944444444444582 -0.01805555555555693 -0.01666666666666805 -0.01527777777777917 -0.01388888888889028 -0.0125000000000014 -0.01111111111111251 -0.009722222222223631 -0.008333333333334747 -0.006944444444445863 -0.005555555555556979 -0.004166666666668095 -0.002777777777779211 -0.001388888888890327 -1.443289932012704e-15 0.001388888888887441 0.002777777777776325 0.004166666666665209 0.005555555555554093 0.006944444444442976 0.00833333333333186 0.009722222222220744 0.01111111111110963 0.01249999999999851 0.0138888888888874 0.01527777777777628 0.01666666666666516 0.01805555555555405 0.01944444444444293 0.02083333333333182 0.0222222222222207 0.02361111111110958 0.02499999999999847 0.02638888888888735 0.02777777777777624 0.02916666666666512 0.030555555555554 0.03194444444444289 0.03333333333333177 0.03472222222222066 0.03611111111110954 0.03749999999999842 0.03888888888888731 0.04027777777777619 0.04166666666666508 0.04305555555555396 0.04444444444444284 0.04583333333333173 0.04722222222222061 0.0486111111111095 0.04999999999999838 0.05138888888888726 0.05277777777777615 0.05416666666666503 0.05555555555555391 0.0569444444444428 0.05833333333333168 0.05972222222222057 0.06111111111110945 0.06249999999999833 0.06388888888888722 0.0652777777777761 0.06666666666666499 0.06805555555555387 0.06944444444444275 0.07083333333333164 0.07222222222222052 0.07361111111110941 0.07499999999999829 0.07638888888888717 0.07777777777777606 0.07916666666666494 0.08055555555555383 0.08194444444444271 0.08333333333333159 0.08472222222222048 0.08611111111110936 0.08749999999999825 0.08888888888888713 0.09027777777777601 0.0916666666666649 0.09305555555555378 0.09444444444444267 0.09583333333333155 0.09722222222222043 0.09861111111110932 0.0999999999999982 0.1013888888888871 0.102777777777776 0.1041666666666649 0.1055555555555537 0.1069444444444426 0.1083333333333315 0.1097222222222204 0.1111111111111093 0.1124999999999982 0.113888888888887 0.1152777777777759 0.1166666666666648 0.1180555555555537 0.1194444444444426 0.1208333333333315 0.1222222222222203 0.1236111111111092 0.1249999999999981 0.126388888888887 0.1277777777777759 0.1291666666666648 0.1305555555555536 0.1319444444444425 0.1333333333333314 0.1347222222222203 0.1361111111111092 0.1374999999999981 0.138888888888887 0.1402777777777758 0.1416666666666647 0.1430555555555536 0.1444444444444425 0.1458333333333314 0.1472222222222203 0.1486111111111091 0.149999999999998 0.1513888888888869 0.1527777777777758 0.1541666666666647 0.1555555555555536 0.1569444444444424 0.1583333333333313 0.1597222222222202 0.1611111111111091 0.162499999999998 0.1638888888888869 0.1652777777777757 0.1666666666666646 0.1680555555555535 0.1694444444444424 0.1708333333333313 0.1722222222222202 0.1736111111111091 0.1749999999999979 0.1763888888888868 0.1777777777777757 0.1791666666666646 0.1805555555555535 0.1819444444444424 0.1833333333333312 0.1847222222222201 0.186111111111109 0.1874999999999979 0.1888888888888868 0.1902777777777757 0.1916666666666645 0.1930555555555534 0.1944444444444423 0.1958333333333312 0.1972222222222201 0.198611111111109 0.1999999999999978 0.2013888888888867 0.2027777777777756 0.2041666666666645 0.2055555555555534 0.2069444444444423 0.2083333333333311 0.20972222222222 0.2111111111111089 0.2124999999999978 0.2138888888888867 0.2152777777777756 0.2166666666666645 0.2180555555555533 0.2194444444444422 0.2208333333333311 0.22222222222222 0.2236111111111089 0.2249999999999978 0.2263888888888866 0.2277777777777755 0.2291666666666644 0.2305555555555533 0.2319444444444422 0.2333333333333311 0.2347222222222199 0.2361111111111088 0.2374999999999977 0.2388888888888866 0.2402777777777755 0.2416666666666644 0.2430555555555532 0.2444444444444421 0.245833333333331 0.2472222222222199 0.2486111111111088 0.2499999999999977 0.2513888888888866 0.2527777777777754 0.2541666666666643 0.2555555555555532 0.2569444444444421 0.258333333333331 0.2597222222222199 0.2611111111111087 0.2624999999999976 0.2638888888888865 0.2652777777777754 0.2666666666666643 0.2680555555555532 0.269444444444442 0.2708333333333309 0.2722222222222198 0.2736111111111087 0.2749999999999976 0.2763888888888865 0.2777777777777753 0.2791666666666642 0.2805555555555531 0.281944444444442 0.2833333333333309 0.2847222222222198 0.2861111111111087 0.2874999999999975 0.2888888888888864 0.2902777777777753 0.2916666666666642 0.2930555555555531 0.294444444444442 0.2958333333333308 0.2972222222222197 0.2986111111111086 0.2999999999999975 0.3013888888888864 0.3027777777777753 0.3041666666666641 0.305555555555553 0.3069444444444419 0.3083333333333308 0.3097222222222197 0.3111111111111086 0.3124999999999974 0.3138888888888863 0.3152777777777752 0.3166666666666641 0.318055555555553 0.3194444444444419 0.3208333333333308 0.3222222222222196 0.3236111111111085 0.3249999999999974 0.3263888888888863 0.3277777777777752 0.3291666666666641 0.3305555555555529 0.3319444444444418 0.3333333333333307 0.3347222222222196 0.3361111111111085 0.3374999999999974 0.3388888888888862 0.3402777777777751 0.341666666666664 0.3430555555555529 0.3444444444444418 0.3458333333333307 0.3472222222222195 0.3486111111111084 0.3499999999999973 0.3513888888888862 0.3527777777777751 0.354166666666664 0.3555555555555528 0.3569444444444417 0.3583333333333306 0.3597222222222195 0.3611111111111084 0.3624999999999973 0.3638888888888862 0.365277777777775 0.3666666666666639 0.3680555555555528 0.3694444444444417 0.3708333333333306 0.3722222222222195 0.3736111111111083 0.3749999999999972 0.3763888888888861 0.377777777777775 0.3791666666666639 0.3805555555555528 0.3819444444444416 0.3833333333333305 0.3847222222222194 0.3861111111111083 0.3874999999999972 0.3888888888888861 0.3902777777777749 0.3916666666666638 0.3930555555555527 0.3944444444444416 0.3958333333333305 0.3972222222222194 0.3986111111111083 0.3999999999999971 0.401388888888886 0.4027777777777749 0.4041666666666638 0.4055555555555527 0.4069444444444416 0.4083333333333304 0.4097222222222193 0.4111111111111082 0.4124999999999971 0.413888888888886 0.4152777777777749 0.4166666666666637 0.4180555555555526 0.4194444444444415 0.4208333333333304 0.4222222222222193 0.4236111111111082 0.424999999999997 0.4263888888888859 0.4277777777777748 0.4291666666666637 0.4305555555555526 0.4319444444444415 0.4333333333333304 0.4347222222222192 0.4361111111111081 0.437499999999997 0.4388888888888859 0.4402777777777748 0.4416666666666637 0.4430555555555525 0.4444444444444414 0.4458333333333303 0.4472222222222192 0.4486111111111081 0.449999999999997 0.4513888888888858 0.4527777777777747 0.4541666666666636 0.4555555555555525 0.4569444444444414 0.4583333333333303 0.4597222222222191 0.461111111111108 0.4624999999999969 0.4638888888888858 0.4652777777777747 0.4666666666666636 0.4680555555555524 0.4694444444444413 0.4708333333333302 0.4722222222222191 0.473611111111108 0.4749999999999969 0.4763888888888858 0.4777777777777746 0.4791666666666635 0.4805555555555524 0.4819444444444413 0.4833333333333302 0.4847222222222191 0.4861111111111079 0.4874999999999968 0.4888888888888857 0.4902777777777746 0.4916666666666635 0.4930555555555524 0.4944444444444412 0.4958333333333301 0.497222222222219 0.4986111111111079 0.497222222222219 0.4958333333333301 0.4944444444444412 0.4930555555555524 0.4916666666666635 0.4902777777777746 0.4888888888888857 0.4874999999999968 0.4861111111111079 0.4847222222222191 0.4833333333333302 0.4819444444444413 0.4805555555555524 0.4791666666666635 0.4777777777777746 0.4763888888888858 0.4749999999999969 0.473611111111108 0.4722222222222191 0.4708333333333302 0.4694444444444413 0.4680555555555524 0.4666666666666636 0.4652777777777747 0.4638888888888858 0.4624999999999969 0.461111111111108 0.4597222222222191 0.4583333333333303 0.4569444444444414 0.4555555555555525 0.4541666666666636 0.4527777777777747 0.4513888888888858 0.449999999999997 0.4486111111111081 0.4472222222222192 0.4458333333333303 0.4444444444444414 0.4430555555555525 0.4416666666666637 0.4402777777777748 0.4388888888888859 0.437499999999997 0.4361111111111081 0.4347222222222192 0.4333333333333304 0.4319444444444415 0.4305555555555526 0.4291666666666637 0.4277777777777748 0.4263888888888859 0.424999999999997 0.4236111111111082 0.4222222222222193 0.4208333333333304 0.4194444444444415 0.4180555555555526 0.4166666666666637 0.4152777777777749 0.413888888888886 0.4124999999999971 0.4111111111111082 0.4097222222222193 0.4083333333333304 0.4069444444444416 0.4055555555555527 0.4041666666666638 0.4027777777777749 0.401388888888886 0.3999999999999971 0.3986111111111083 0.3972222222222194 0.3958333333333305 0.3944444444444416 0.3930555555555527 0.3916666666666638 0.3902777777777749 0.3888888888888861 0.3874999999999972 0.3861111111111083 0.3847222222222194 0.3833333333333305 0.3819444444444416 0.3805555555555528 0.3791666666666639 0.377777777777775 0.3763888888888861 0.3749999999999972 0.3736111111111083 0.3722222222222195 0.3708333333333306 0.3694444444444417 0.3680555555555528 0.3666666666666639 0.365277777777775 0.3638888888888862 0.3624999999999973 0.3611111111111084 0.3597222222222195 0.3583333333333306 0.3569444444444417 0.3555555555555528 0.354166666666664 0.3527777777777751 0.3513888888888862 0.3499999999999973 0.3486111111111084 0.3472222222222195 0.3458333333333307 0.3444444444444418 0.3430555555555529 0.341666666666664 0.3402777777777751 0.3388888888888862 0.3374999999999974 0.3361111111111085 0.3347222222222196 0.3333333333333307 0.3319444444444418 0.3305555555555529 0.3291666666666641 0.3277777777777752 0.3263888888888863 0.3249999999999974 0.3236111111111085 0.3222222222222196 0.3208333333333308 0.3194444444444419 0.318055555555553 0.3166666666666641 0.3152777777777752 0.3138888888888863 0.3124999999999974 0.3111111111111086 0.3097222222222197 0.3083333333333308 0.3069444444444419 0.305555555555553 0.3041666666666641 0.3027777777777753 0.3013888888888864 0.2999999999999975 0.2986111111111086 0.2972222222222197 0.2958333333333308 0.294444444444442 0.2930555555555531 0.2916666666666642 0.2902777777777753 0.2888888888888864 0.2874999999999975 0.2861111111111087 0.2847222222222198 0.2833333333333309 0.281944444444442 0.2805555555555531 0.2791666666666642 0.2777777777777753 0.2763888888888865 0.2749999999999976 0.2736111111111087 0.2722222222222198 0.2708333333333309 0.269444444444442 0.2680555555555532 0.2666666666666643 0.2652777777777754 0.2638888888888865 0.2624999999999976 0.2611111111111087 0.2597222222222199 0.258333333333331 0.2569444444444421 0.2555555555555532 0.2541666666666643 0.2527777777777754 0.2513888888888866 0.2499999999999977 0.2486111111111088 0.2472222222222199 0.245833333333331 0.2444444444444421 0.2430555555555532 0.2416666666666644 0.2402777777777755 0.2388888888888866 0.2374999999999977 0.2361111111111088 0.2347222222222199 0.2333333333333311 0.2319444444444422 0.2305555555555533 0.2291666666666644 0.2277777777777755 0.2263888888888866 0.2249999999999978 0.2236111111111089 0.22222222222222 0.2208333333333311 0.2194444444444422 0.2180555555555533 0.2166666666666645 0.2152777777777756 0.2138888888888867 0.2124999999999978 0.2111111111111089 0.20972222222222 0.2083333333333311 0.2069444444444423 0.2055555555555534 0.2041666666666645 0.2027777777777756 0.2013888888888867 0.1999999999999978 0.198611111111109 0.1972222222222201 0.1958333333333312 0.1944444444444423 0.1930555555555534 0.1916666666666645 0.1902777777777757 0.1888888888888868 0.1874999999999979 0.186111111111109 0.1847222222222201 0.1833333333333312 0.1819444444444424 0.1805555555555535 0.1791666666666646 0.1777777777777757 0.1763888888888868 0.1749999999999979 0.1736111111111091 0.1722222222222202 0.1708333333333313 0.1694444444444424 0.1680555555555535 0.1666666666666646 0.1652777777777757 0.1638888888888869 0.162499999999998 0.1611111111111091 0.1597222222222202 0.1583333333333313 0.1569444444444424 0.1555555555555536 0.1541666666666647 0.1527777777777758 0.1513888888888869 0.149999999999998 0.1486111111111091 0.1472222222222203 0.1458333333333314 0.1444444444444425 0.1430555555555536 0.1416666666666647 0.1402777777777758 0.138888888888887 0.1374999999999981 0.1361111111111092 0.1347222222222203 0.1333333333333314 0.1319444444444425 0.1305555555555536 0.1291666666666648 0.1277777777777759 0.126388888888887 0.1249999999999981 0.1236111111111092 0.1222222222222203 0.1208333333333315 0.1194444444444426 0.1180555555555537 0.1166666666666648 0.1152777777777759 0.113888888888887 0.1124999999999982 0.1111111111111093 0.1097222222222204 0.1083333333333315 0.1069444444444426 0.1055555555555537 0.1041666666666649 0.102777777777776 0.1013888888888871 0.0999999999999982 0.09861111111110932 0.09722222222222043 0.09583333333333155 0.09444444444444267 0.09305555555555378 0.0916666666666649 0.09027777777777601 0.08888888888888713 0.08749999999999825 0.08611111111110936 0.08472222222222048 0.08333333333333159 0.08194444444444271 0.08055555555555383 0.07916666666666494 0.07777777777777606 0.07638888888888717 0.07499999999999829 0.07361111111110941 0.07222222222222052 0.07083333333333164 0.06944444444444275 0.06805555555555387 0.06666666666666499 0.0652777777777761 0.06388888888888722 0.06249999999999833 0.06111111111110945 0.05972222222222057 0.05833333333333168 0.0569444444444428 0.05555555555555391 0.05416666666666503 0.05277777777777615 0.05138888888888726 0.04999999999999838 0.0486111111111095 0.04722222222222061 0.04583333333333173 0.04444444444444284 0.04305555555555396 0.04166666666666508 0.04027777777777619 0.03888888888888731 0.03749999999999842 0.03611111111110954 0.03472222222222066 0.03333333333333177 0.03194444444444289 0.030555555555554 0.02916666666666512 0.02777777777777624 0.02638888888888735 0.02499999999999847 0.02361111111110958 0.0222222222222207 0.02083333333333182 0.01944444444444293 0.01805555555555405 0.01666666666666516 0.01527777777777628 0.0138888888888874 0.01249999999999851 0.01111111111110963 0.009722222222220744 0.00833333333333186 0.006944444444442976 0.005555555555554093 0.004166666666665209 0.002777777777776325 0.001388888888887441 -1.443289932012704e-15 -0.001388888888890327 -0.002777777777779211 -0.004166666666668095 -0.005555555555556979 -0.006944444444445863 -0.008333333333334747 -0.009722222222223631 -0.01111111111111251 -0.0125000000000014 -0.01388888888889028 -0.01527777777777917 -0.01666666666666805 -0.01805555555555693 -0.01944444444444582 -0.0208333333333347 -0.02222222222222359 -0.02361111111111247 -0.02500000000000135 -0.02638888888889024 -0.02777777777777912 -0.02916666666666801 -0.03055555555555689 -0.03194444444444577 -0.03333333333333466 -0.03472222222222354 -0.03611111111111243 -0.03750000000000131 -0.03888888888889019 -0.04027777777777908 -0.04166666666666796 -0.04305555555555685 -0.04444444444444573 -0.04583333333333461 -0.0472222222222235 -0.04861111111111238 -0.05000000000000127 -0.05138888888889015 -0.05277777777777903 -0.05416666666666792 -0.0555555555555568 -0.05694444444444569 -0.05833333333333457 -0.05972222222222345 -0.06111111111111234 -0.06250000000000122 -0.06388888888889011 -0.06527777777777899 -0.06666666666666787 -0.06805555555555676 -0.06944444444444564 -0.07083333333333452 -0.07222222222222341 -0.07361111111111229 -0.07500000000000118 -0.07638888888889006 -0.07777777777777894 -0.07916666666666783 -0.08055555555555671 -0.0819444444444456 -0.08333333333333448 -0.08472222222222336 -0.08611111111111225 -0.08750000000000113 -0.08888888888889002 -0.0902777777777789 -0.09166666666666778 -0.09305555555555667 -0.09444444444444555 -0.09583333333333444 -0.09722222222222332 -0.0986111111111122 -0.1000000000000011 -0.10138888888889 -0.1027777777777789 -0.1041666666666677 -0.1055555555555566 -0.1069444444444455 -0.1083333333333344 -0.1097222222222233 -0.1111111111111122 -0.112500000000001 -0.1138888888888899 -0.1152777777777788 -0.1166666666666677 -0.1180555555555566 -0.1194444444444455 -0.1208333333333343 -0.1222222222222232 -0.1236111111111121 -0.125000000000001 -0.1263888888888899 -0.1277777777777788 -0.1291666666666677 -0.1305555555555565 -0.1319444444444454 -0.1333333333333343 -0.1347222222222232 -0.1361111111111121 -0.137500000000001 -0.1388888888888898 -0.1402777777777787 -0.1416666666666676 -0.1430555555555565 -0.1444444444444454 -0.1458333333333343 -0.1472222222222231 -0.148611111111112 -0.1500000000000009 -0.1513888888888898 -0.1527777777777787 -0.1541666666666676 -0.1555555555555564 -0.1569444444444453 -0.1583333333333342 -0.1597222222222231 -0.161111111111112 -0.1625000000000009 -0.1638888888888897 -0.1652777777777786 -0.1666666666666675 -0.1680555555555564 -0.1694444444444453 -0.1708333333333342 -0.1722222222222231 -0.1736111111111119 -0.1750000000000008 -0.1763888888888897 -0.1777777777777786 -0.1791666666666675 -0.1805555555555564 -0.1819444444444452 -0.1833333333333341 -0.184722222222223 -0.1861111111111119 -0.1875000000000008 -0.1888888888888897 -0.1902777777777785 -0.1916666666666674 -0.1930555555555563 -0.1944444444444452 -0.1958333333333341 -0.197222222222223 -0.1986111111111118 -0.2000000000000007 -0.2013888888888896 -0.2027777777777785 -0.2041666666666674 -0.2055555555555563 -0.2069444444444452 -0.208333333333334 -0.2097222222222229 -0.2111111111111118 -0.2125000000000007 -0.2138888888888896 -0.2152777777777785 -0.2166666666666673 -0.2180555555555562 -0.2194444444444451 -0.220833333333334 -0.2222222222222229 -0.2236111111111118 -0.2250000000000006 -0.2263888888888895 -0.2277777777777784 -0.2291666666666673 -0.2305555555555562 -0.2319444444444451 -0.2333333333333339 -0.2347222222222228 -0.2361111111111117 -0.2375000000000006 -0.2388888888888895 -0.2402777777777784 -0.2416666666666673 -0.2430555555555561 -0.244444444444445 -0.2458333333333339 -0.2472222222222228 -0.2486111111111117 -0.2500000000000006 -0.2513888888888894 -0.2527777777777783 -0.2541666666666672 -0.2555555555555561 -0.256944444444445 -0.2583333333333339 -0.2597222222222227 -0.2611111111111116 -0.2625000000000005 -0.2638888888888894 -0.2652777777777783 -0.2666666666666672 -0.268055555555556 -0.2694444444444449 -0.2708333333333338 -0.2722222222222227 -0.2736111111111116 -0.2750000000000005 -0.2763888888888894 -0.2777777777777782 -0.2791666666666671 -0.280555555555556 -0.2819444444444449 -0.2833333333333338 -0.2847222222222227 -0.2861111111111115 -0.2875000000000004 -0.2888888888888893 -0.2902777777777782 -0.2916666666666671 -0.293055555555556 -0.2944444444444448 -0.2958333333333337 -0.2972222222222226 -0.2986111111111115 -0.3000000000000004 -0.3013888888888893 -0.3027777777777781 -0.304166666666667 -0.3055555555555559 -0.3069444444444448 -0.3083333333333337 -0.3097222222222226 -0.3111111111111114 -0.3125000000000003 -0.3138888888888892 -0.3152777777777781 -0.316666666666667 -0.3180555555555559 -0.3194444444444448 -0.3208333333333336 -0.3222222222222225 -0.3236111111111114 -0.3250000000000003 -0.3263888888888892 -0.3277777777777781 -0.3291666666666669 -0.3305555555555558 -0.3319444444444447 -0.3333333333333336 -0.3347222222222225 -0.3361111111111114 -0.3375000000000002 -0.3388888888888891 -0.340277777777778 -0.3416666666666669 -0.3430555555555558 -0.3444444444444447 -0.3458333333333335 -0.3472222222222224 -0.3486111111111113 -0.3500000000000002 -0.3513888888888891 -0.352777777777778 -0.3541666666666669 -0.3555555555555557 -0.3569444444444446 -0.3583333333333335 -0.3597222222222224 -0.3611111111111113 -0.3625000000000002 -0.363888888888889 -0.3652777777777779 -0.3666666666666668 -0.3680555555555557 -0.3694444444444446 -0.3708333333333335 -0.3722222222222223 -0.3736111111111112 -0.3750000000000001 -0.376388888888889 -0.3777777777777779 -0.3791666666666668 -0.3805555555555556 -0.3819444444444445 -0.3833333333333334 -0.3847222222222223 -0.3861111111111112 -0.3875000000000001 -0.388888888888889 -0.3902777777777778 -0.3916666666666667 -0.3930555555555556 -0.3944444444444445 -0.3958333333333334 -0.3972222222222223 -0.3986111111111111 -0.4 -0.4013888888888889 -0.4027777777777778 -0.4041666666666667 -0.4055555555555556 -0.4069444444444444 -0.4083333333333333 -0.4097222222222222 -0.4111111111111111 -0.4125 -0.4138888888888889 -0.4152777777777777 -0.4166666666666666 -0.4180555555555555 -0.4194444444444444 -0.4208333333333333 -0.4222222222222222 -0.423611111111111 -0.4249999999999999 -0.4263888888888888 -0.4277777777777777 -0.4291666666666666 -0.4305555555555555 -0.4319444444444444 -0.4333333333333332 -0.4347222222222221 -0.436111111111111 -0.4374999999999999 -0.4388888888888888 -0.4402777777777777 -0.4416666666666665 -0.4430555555555554 -0.4444444444444444 -0.4458333333333332 -0.4472222222222221 -0.448611111111111 -0.4499999999999999 -0.4513888888888888 -0.4527777777777777 -0.4541666666666666 -0.4555555555555555 -0.4569444444444444 -0.4583333333333333 -0.4597222222222221 -0.461111111111111 -0.4624999999999999 -0.4638888888888888 -0.4652777777777777 -0.4666666666666666 -0.4680555555555555 -0.4694444444444444 -0.4708333333333333 -0.4722222222222222 -0.473611111111111 -0.4749999999999999 -0.4763888888888888 -0.4777777777777777 -0.4791666666666666 -0.4805555555555555 -0.4819444444444443 -0.4833333333333332 -0.4847222222222222 -0.486111111111111 -0.4874999999999999 -0.4888888888888888 -0.4902777777777777 -0.4916666666666666 -0.4930555555555555 -0.4944444444444444 -0.4958333333333332 -0.4972222222222221 -0.498611111111111 -0.4999999999999999 -0.5013888888888888 -0.4999999999999999 -0.498611111111111 -0.4972222222222221 -0.4958333333333332 -0.4944444444444444 -0.4930555555555555 -0.4916666666666666 -0.4902777777777777 -0.4888888888888888 -0.4874999999999999 -0.486111111111111 -0.4847222222222222 -0.4833333333333332 -0.4819444444444443 -0.4805555555555555 -0.4791666666666666 -0.4777777777777777 -0.4763888888888888 -0.4749999999999999 -0.473611111111111 -0.4722222222222222 -0.4708333333333333 -0.4694444444444444 -0.4680555555555555 -0.4666666666666666 -0.4652777777777777 -0.4638888888888888 -0.4624999999999999 -0.461111111111111 -0.4597222222222221 -0.4583333333333333 -0.4569444444444444 -0.4555555555555555 -0.4541666666666666 -0.4527777777777777 -0.4513888888888888 -0.4499999999999999 -0.448611111111111 -0.4472222222222221 -0.4458333333333332 -0.4444444444444444 -0.4430555555555554 -0.4416666666666665 -0.4402777777777777 -0.4388888888888888 -0.4374999999999999 -0.436111111111111 -0.4347222222222221 -0.4333333333333332 -0.4319444444444444 -0.4305555555555555 -0.4291666666666666 -0.4277777777777777 -0.4263888888888888 -0.4249999999999999 -0.423611111111111 -0.4222222222222222 -0.4208333333333333 -0.4194444444444444 -0.4180555555555555 -0.4166666666666666 -0.4152777777777777 -0.4138888888888889 -0.4125 -0.4111111111111111 -0.4097222222222222 -0.4083333333333333 -0.4069444444444444 -0.4055555555555556 -0.4041666666666667 -0.4027777777777778 -0.4013888888888889 -0.4 -0.3986111111111111 -0.3972222222222223 -0.3958333333333334 -0.3944444444444445 -0.3930555555555556 -0.3916666666666667 -0.3902777777777778 -0.388888888888889 -0.3875000000000001 -0.3861111111111112 -0.3847222222222223 -0.3833333333333334 -0.3819444444444445 -0.3805555555555556 -0.3791666666666668 -0.3777777777777779 -0.376388888888889 -0.3750000000000001 -0.3736111111111112 -0.3722222222222223 -0.3708333333333335 -0.3694444444444446 -0.3680555555555557 -0.3666666666666668 -0.3652777777777779 -0.363888888888889 -0.3625000000000002 -0.3611111111111113 -0.3597222222222224 -0.3583333333333335 -0.3569444444444446 -0.3555555555555557 -0.3541666666666669 -0.352777777777778 -0.3513888888888891 -0.3500000000000002 -0.3486111111111113 -0.3472222222222224 -0.3458333333333335 -0.3444444444444447 -0.3430555555555558 -0.3416666666666669 -0.340277777777778 -0.3388888888888891 -0.3375000000000002 -0.3361111111111114 -0.3347222222222225 -0.3333333333333336 -0.3319444444444447 -0.3305555555555558 -0.3291666666666669 -0.3277777777777781 -0.3263888888888892 -0.3250000000000003 -0.3236111111111114 -0.3222222222222225 -0.3208333333333336 -0.3194444444444448 -0.3180555555555559 -0.316666666666667 -0.3152777777777781 -0.3138888888888892 -0.3125000000000003 -0.3111111111111114 -0.3097222222222226 -0.3083333333333337 -0.3069444444444448 -0.3055555555555559 -0.304166666666667 -0.3027777777777781 -0.3013888888888893 -0.3000000000000004 -0.2986111111111115 -0.2972222222222226 -0.2958333333333337 -0.2944444444444448 -0.293055555555556 -0.2916666666666671 -0.2902777777777782 -0.2888888888888893 -0.2875000000000004 -0.2861111111111115 -0.2847222222222227 -0.2833333333333338 -0.2819444444444449 -0.280555555555556 -0.2791666666666671 -0.2777777777777782 -0.2763888888888894 -0.2750000000000005 -0.2736111111111116 -0.2722222222222227 -0.2708333333333338 -0.2694444444444449 -0.268055555555556 -0.2666666666666672 -0.2652777777777783 -0.2638888888888894 -0.2625000000000005 -0.2611111111111116 -0.2597222222222227 -0.2583333333333339 -0.256944444444445 -0.2555555555555561 -0.2541666666666672 -0.2527777777777783 -0.2513888888888894 -0.2500000000000006 -0.2486111111111117 -0.2472222222222228 -0.2458333333333339 -0.244444444444445 -0.2430555555555561 -0.2416666666666673 -0.2402777777777784 -0.2388888888888895 -0.2375000000000006 -0.2361111111111117 -0.2347222222222228 -0.2333333333333339 -0.2319444444444451 -0.2305555555555562 -0.2291666666666673 -0.2277777777777784 -0.2263888888888895 -0.2250000000000006 -0.2236111111111118 -0.2222222222222229 -0.220833333333334 -0.2194444444444451 -0.2180555555555562 -0.2166666666666673 -0.2152777777777785 -0.2138888888888896 -0.2125000000000007 -0.2111111111111118 -0.2097222222222229 -0.208333333333334 -0.2069444444444452 -0.2055555555555563 -0.2041666666666674 -0.2027777777777785 -0.2013888888888896 -0.2000000000000007 -0.1986111111111118 -0.197222222222223 -0.1958333333333341 -0.1944444444444452 -0.1930555555555563 -0.1916666666666674 -0.1902777777777785 -0.1888888888888897 -0.1875000000000008 -0.1861111111111119 -0.184722222222223 -0.1833333333333341 -0.1819444444444452 -0.1805555555555564 -0.1791666666666675 -0.1777777777777786 -0.1763888888888897 -0.1750000000000008 -0.1736111111111119 -0.1722222222222231 -0.1708333333333342 -0.1694444444444453 -0.1680555555555564 -0.1666666666666675 -0.1652777777777786 -0.1638888888888897 -0.1625000000000009 -0.161111111111112 -0.1597222222222231 -0.1583333333333342 -0.1569444444444453 -0.1555555555555564 -0.1541666666666676 -0.1527777777777787 -0.1513888888888898 -0.1500000000000009 -0.148611111111112 -0.1472222222222231 -0.1458333333333343 -0.1444444444444454 -0.1430555555555565 -0.1416666666666676 -0.1402777777777787 -0.1388888888888898 -0.137500000000001 -0.1361111111111121 -0.1347222222222232 -0.1333333333333343 -0.1319444444444454 -0.1305555555555565 -0.1291666666666677 -0.1277777777777788 -0.1263888888888899 -0.125000000000001 -0.1236111111111121 -0.1222222222222232 -0.1208333333333343 -0.1194444444444455 -0.1180555555555566 -0.1166666666666677 -0.1152777777777788 -0.1138888888888899 -0.112500000000001 -0.1111111111111122 -0.1097222222222233 -0.1083333333333344 -0.1069444444444455 -0.1055555555555566 -0.1041666666666677 -0.1027777777777789 -0.10138888888889 -0.1000000000000011 -0.0986111111111122 -0.09722222222222332 -0.09583333333333444 -0.09444444444444555 -0.09305555555555667 -0.09166666666666778 -0.0902777777777789 -0.08888888888889002 -0.08750000000000113 -0.08611111111111225 -0.08472222222222336 -0.08333333333333448 -0.0819444444444456 -0.08055555555555671 -0.07916666666666783 -0.07777777777777894 -0.07638888888889006 -0.07500000000000118 -0.07361111111111229 -0.07222222222222341 -0.07083333333333452 -0.06944444444444564 -0.06805555555555676 -0.06666666666666787 -0.06527777777777899 -0.06388888888889011 -0.06250000000000122 -0.06111111111111234 -0.05972222222222345 -0.05833333333333457 -0.05694444444444569 -0.0555555555555568 -0.05416666666666792 -0.05277777777777903 -0.05138888888889015 -0.05000000000000127 -0.04861111111111238 -0.0472222222222235 -0.04583333333333461 -0.04444444444444573 -0.04305555555555685 -0.04166666666666796 -0.04027777777777908 -0.03888888888889019 -0.03750000000000131 -0.03611111111111243 -0.03472222222222354 -0.03333333333333466 -0.03194444444444577 -0.03055555555555689 -0.02916666666666801 -0.02777777777777912 -0.02638888888889024 -0.02500000000000135 -0.02361111111111247 -0.02222222222222359 -0.0208333333333347 -0.01944444444444582 -0.01805555555555693 -0.01666666666666805 -0.01527777777777917 -0.01388888888889028 -0.0125000000000014 -0.01111111111111251 -0.009722222222223631 -0.008333333333334747 -0.006944444444445863 -0.005555555555556979 